time,ECG
0.0,-0.038528946112031434
8.0,-0.047062646444646514
16.0,-0.05255077135646436
24.0,-0.056096504098250115
32.0,-0.05936861202993243
40.0,-0.06061035502531187
48.0,-0.05841721682574794
56.0,-0.05946150768470396
64.0,-0.05656620436763395
72.0,-0.05350350123570097
80.0,-0.06177551821569632
88.0,-0.08391226456364091
96.0,-0.10894775184682348
104.0,-0.07261549025255956
112.0,0.19087377731340796
120.0,0.7676057258547919
128.0,1.2736438350248862
136.0,1.3136054802687853
144.0,0.8676079615934669
152.0,0.2712556594531924
160.0,-0.04212895467207399
168.0,-0.10319647604848779
176.0,-0.0798476484553127
184.0,-0.05733463980116689
192.0,-0.05049192526091364
200.0,-0.05054442545361699
208.0,-0.04832248682211045
216.0,-0.04523689916724169
224.0,-0.046475912132831546
232.0,-0.05353747255941661
240.0,-0.05705691260140904
248.0,-0.05533457042629852
256.0,-0.05252576027002196
264.0,-0.05046563110450004
272.0,-0.050485788865707676
280.0,-0.049512400238662435
288.0,-0.05245370293044433
296.0,-0.05787806056499873
304.0,-0.05975191179632805
312.0,-0.06062360331267344
320.0,-0.05627109949999759
328.0,-0.05408908443324958
336.0,-0.05934168762882696
344.0,-0.05854509652882276
352.0,-0.03826558809203344
360.0,-0.011222373931008408
368.0,0.012437748748799982
376.0,0.0637891812804877
384.0,0.09387851838402163
392.0,0.061946136592884005
400.0,0.0044292353213736604
408.0,-0.03266311753828574
416.0,-0.053009512422474155
424.0,-0.059944164634813876
432.0,-0.05596322685294023
440.0,-0.045174917437834035
448.0,-0.03453679680331085
456.0,-0.029879688186662038
464.0,-0.03055355581496086
472.0,-0.03090765037949446
480.0,-0.025507941094013442
488.0,-0.01998497368510181
496.0,-0.020171762341446874
504.0,-0.023723011453076447
512.0,-0.03084877179279284
520.0,-0.03733023845061616
528.0,-0.03752142931844123
536.0,-0.03431948396277207
544.0,-0.02996717918168093
552.0,-0.027317598897658446
560.0,-0.02727874618808772
568.0,-0.028041725571342217
576.0,-0.02801055127102199
584.0,-0.0292082083095482
592.0,-0.033994876730765
600.0,-0.03328823832000277
608.0,-0.027910754469096005
616.0,-0.028784812960932403
624.0,-0.0354762128377615
632.0,-0.04085760507904109
640.0,-0.04235993516658328
648.0,-0.03877189368445588
656.0,-0.03817799230733764
664.0,-0.04084874702087517
672.0,-0.04097673428997826
680.0,-0.041056514373417806
688.0,-0.04013967077454158
696.0,-0.03232494494019399
704.0,-0.024357339308380042
712.0,-0.030763199261688714
720.0,-0.044471132838817554
728.0,-0.05129126001113844
736.0,-0.04886342055371364
744.0,-0.04259347113557314
752.0,-0.03911753322421468
760.0,-0.037003588970558915
768.0,-0.03714255766322144
776.0,-0.04233367500639588
784.0,-0.04502986021977879
792.0,-0.04249434527676082
800.0,-0.03766688751491931
808.0,-0.03313992849710738
816.0,-0.0336584022799179
824.0,-0.0357575282032358
832.0,-0.03524152594699565
840.0,-0.03238548666021299
848.0,-0.03248915794486454
856.0,-0.0378869165629017
864.0,-0.03989452184964377
872.0,-0.04053466074993017
880.0,-0.03953368461459677
888.0,-0.03863264054721724
896.0,-0.03947997423081595
904.0,-0.03697023441807317
912.0,-0.03280689546065034
920.0,-0.031418838324776883
928.0,-0.03847635879733751
936.0,-0.04500899552133273
944.0,-0.04246293647280365
952.0,-0.035362863900885534
960.0,-0.03249832143315091
968.0,-0.03248943163168234
976.0,-0.03351073623606669
984.0,-0.0389878890521387
992.0,-0.0450660324461116
1000.0,-0.04318814743942581
1008.0,-0.04098453083543308
1016.0,-0.044414953141843745
1024.0,-0.04544323751400542
1032.0,-0.04135802627456872
1040.0,-0.038583355292567394
1048.0,-0.0374958297091365
1056.0,-0.03692852626106194
1064.0,-0.038248112414824585
1072.0,-0.04025775063681236
1080.0,-0.04375808446316837
1088.0,-0.04758498453718999
1096.0,-0.047923220610356136
1104.0,-0.04759825161325685
1112.0,-0.04737945641469039
1120.0,-0.0478098581394377
1128.0,-0.04918248307959516
1136.0,-0.04607845188352767
1144.0,-0.04522485477359539
1152.0,-0.05045963034509182
1160.0,-0.05004572189382663
1168.0,-0.04674119339204475
1176.0,-0.045234345536316015
1184.0,-0.04671798948522195
1192.0,-0.05020395968475134
1200.0,-0.050431176597702285
1208.0,-0.04531686536657341
1216.0,-0.041883398934364935
1224.0,-0.04211067696240578
1232.0,-0.04075065766110951
1240.0,-0.04541275792304032
1248.0,-0.06730267708909482
1256.0,-0.10250276816001733
1264.0,-0.11057675862432569
1272.0,0.0368025144330707
1280.0,0.5074168073334127
1288.0,1.1295570789637435
1296.0,1.4541103799257387
1304.0,1.3796517521477125
1312.0,0.9309633147231868
1320.0,0.3299254775563377
1328.0,-0.014258296549577332
1336.0,-0.08825767541281665
1344.0,-0.07053076055476769
1352.0,-0.053352237340251636
1360.0,-0.052281797966182764
1368.0,-0.05493874495303502
1376.0,-0.049060917888527136
1384.0,-0.043572680654789926
1392.0,-0.04838096736729724
1400.0,-0.05566082400134808
1408.0,-0.059886531100508705
1416.0,-0.05832736792662792
1424.0,-0.052039103426447554
1432.0,-0.04662565539500892
1440.0,-0.042830989661296046
1448.0,-0.04107738394971423
1456.0,-0.04165562923132027
1464.0,-0.04643090861495165
1472.0,-0.05045580215121976
1480.0,-0.05088259370184823
1488.0,-0.051105962440441015
1496.0,-0.050541802266752936
1504.0,-0.053078815339588234
1512.0,-0.05616000766650247
1520.0,-0.05630659615067382
1528.0,-0.05508155014759771
1536.0,-0.05000604081574818
1544.0,-0.04829759292727237
1552.0,-0.04954733327024426
1560.0,-0.049921735948757325
1568.0,-0.04924858606367663
1576.0,-0.04979771170816244
1584.0,-0.054938012230466196
1592.0,-0.059596925423453954
1600.0,-0.057267993558426135
1608.0,-0.0465195854983179
1616.0,-0.03538434035322949
1624.0,-0.03205299364447246
1632.0,-0.03007810119861866
1640.0,-0.02342527429687452
1648.0,-0.0201391912161899
1656.0,-0.018503789105524096
1664.0,-0.019719123092179124
1672.0,-0.025756633288687096
1680.0,-0.03098672711687503
1688.0,-0.032437060582998965
1696.0,-0.03028271294177581
1704.0,-0.02708751622137293
1712.0,-0.024463243968553997
1720.0,-0.026608538434416934
1728.0,-0.029782336806068996
1736.0,-0.03256798696958878
1744.0,-0.03445787993036286
1752.0,-0.034240229243355486
1760.0,-0.03283887803518243
1768.0,-0.030158953979398335
1776.0,-0.02955620608553255
1784.0,-0.032623924068496894
1792.0,-0.03674892283158733
1800.0,-0.039043748804330536
1808.0,-0.03627261114152153
1816.0,-0.02741249524813334
1824.0,-0.018227284439819184
1832.0,-0.019791074186119237
1840.0,-0.03304869165357888
1848.0,-0.044834868692265946
1856.0,-0.044167931993080445
1864.0,-0.0343216018608202
1872.0,-0.029088428272267437
1880.0,-0.027863500711908806
1888.0,-0.031784535981480955
1896.0,-0.03746631922216005
1904.0,-0.0410894414856903
1912.0,-0.041879564511425806
1920.0,-0.034575198461797484
1928.0,-0.027563595005613607
1936.0,-0.026518771587751525
1944.0,-0.031489253593587924
1952.0,-0.03387525342426282
1960.0,-0.03219578667079524
1968.0,-0.035140428062777535
1976.0,-0.03241555304474942
1984.0,-0.02586714628648227
1992.0,-0.023581900364662046
2000.0,-0.024159860574913435
2008.0,-0.029515041490604653
2016.0,-0.03549804413971723
2024.0,-0.03305413892918144
2032.0,-0.029373971222217975
2040.0,-0.03160162189100805
2048.0,-0.03732685926199471
2056.0,-0.041677790396252745
2064.0,-0.03850616986181093
2072.0,-0.0328005332058123
2080.0,-0.03203190359411206
2088.0,-0.03260601914484419
2096.0,-0.032506762847940275
2104.0,-0.03254181107672505
2112.0,-0.0327366594476502
2120.0,-0.0315778496277183
2128.0,-0.03248522554854364
2136.0,-0.03934984914392935
2144.0,-0.04185763034514531
2152.0,-0.0360255363823395
2160.0,-0.030423747147589154
2168.0,-0.03180803302478204
2176.0,-0.03639036454891697
2184.0,-0.03748561109690204
2192.0,-0.03528167817392034
2200.0,-0.03753588578636987
2208.0,-0.04615777377928359
2216.0,-0.05341056658014001
2224.0,-0.05440744358238993
2232.0,-0.05080951164119816
2240.0,-0.04603407027857937
2248.0,-0.04283631053511841
2256.0,-0.03711477177648048
2264.0,-0.03339801754028092
2272.0,-0.03452484912639837
2280.0,-0.03408771632891215
2288.0,-0.03705920936000691
2296.0,-0.04529331524121004
2304.0,-0.05481653136698026
2312.0,-0.06099895249387366
2320.0,-0.0583997064186833
2328.0,-0.050614364352866356
2336.0,-0.04144069701462837
2344.0,-0.03567259746589084
2352.0,-0.038181600039144385
2360.0,-0.045562651931131945
2368.0,-0.06673231879880712
2376.0,-0.09648836446255957
2384.0,-0.060646110701500534
2392.0,0.2156259169554165
2400.0,0.8065469705388735
2408.0,1.313516592424059
2416.0,1.3489239937562056
2424.0,0.8931298937478149
2432.0,0.28117282024150736
2440.0,-0.03937836589719322
2448.0,-0.10300015922222495
2456.0,-0.0746270525864591
2464.0,-0.040647935409554505
2472.0,-0.025755023340742384
2480.0,-0.02665955843227943
2488.0,-0.03541684465153204
2496.0,-0.039016190972159664
2504.0,-0.035218420769943116
2512.0,-0.031480222153871466
2520.0,-0.03051684504410785
2528.0,-0.031777239101080546
2536.0,-0.03381137378593522
2544.0,-0.03774628940473883
2552.0,-0.04436790745599634
2560.0,-0.04935387939605515
2568.0,-0.04906540455939802
2576.0,-0.04873578993801134
2584.0,-0.04930331326641908
2592.0,-0.0463913949560474
2600.0,-0.04132212130655916
2608.0,-0.036958001292056744
2616.0,-0.03600419587874849
2624.0,-0.03617003550998603
2632.0,-0.036008743600085054
2640.0,-0.030686089816843662
2648.0,-0.024605308161870097
2656.0,-0.028450375748489288
2664.0,-0.042784034434413
2672.0,-0.055602474180341546
2680.0,-0.058267904693146404
2688.0,-0.05096565552789308
2696.0,-0.04245034441894982
2704.0,-0.041110116777912924
2712.0,-0.04268614774933097
2720.0,-0.04092971561010053
2728.0,-0.03324747976593121
2736.0,-0.0269235819008996
2744.0,-0.025689359683748667
2752.0,-0.024920091536731782
2760.0,-0.02221837294221285
2768.0,-0.020895292352290415
2776.0,-0.021064689129316593
2784.0,-0.02468917224716494
2792.0,-0.029691977010024292
2800.0,-0.028416300378734313
2808.0,-0.0254427415641066
2816.0,-0.027580607675303383
2824.0,-0.029573919965835138
2832.0,-0.028393837955648708
2840.0,-0.02852355783377594
2848.0,-0.03776776245513942
2856.0,-0.04449551874970157
2864.0,-0.04138301600395174
2872.0,-0.033897677384883314
2880.0,-0.02316461369330814
2888.0,-0.020710615451536137
2896.0,-0.027307205486741173
2904.0,-0.035344375841022714
2912.0,-0.035089328519036685
2920.0,-0.02991123899689459
2928.0,-0.02924215794684059
2936.0,-0.03227094323394463
2944.0,-0.03817997740546949
2952.0,-0.037892747885765514
2960.0,-0.03138593370510315
2968.0,-0.031215462632939568
2976.0,-0.03663363945773567
2984.0,-0.041220881828793486
2992.0,-0.042129996469164856
3000.0,-0.03678066151849604
3008.0,-0.03451262892849585
3016.0,-0.037060938936775735
3024.0,-0.03729253333457589
3032.0,-0.03841253295688351
3040.0,-0.0396983769436993
3048.0,-0.03404786196061214
3056.0,-0.02747006347462286
3064.0,-0.026036594188097662
3072.0,-0.030732380396745005
3080.0,-0.04020981886879876
3088.0,-0.04732980538523819
3096.0,-0.04889788035325153
3104.0,-0.04715540993519781
3112.0,-0.04157878353067966
3120.0,-0.03626537501631311
3128.0,-0.03348002743938328
3136.0,-0.03264189938448364
3144.0,-0.036407496811566555
3152.0,-0.0396640526301596
3160.0,-0.03748546749232069
3168.0,-0.034573370786365104
3176.0,-0.032887778014351624
3184.0,-0.03652468923449349
3192.0,-0.042893114852699116
3200.0,-0.046302426175155995
3208.0,-0.04941277713926694
3216.0,-0.04496306392767738
3224.0,-0.040759124450462175
3232.0,-0.04261647575332574
3240.0,-0.04243306682633063
3248.0,-0.037682004567027146
3256.0,-0.03533787258155564
3264.0,-0.040293569269761846
3272.0,-0.04862499800205563
3280.0,-0.049364630671719804
3288.0,-0.042163191784861165
3296.0,-0.03802191078522735
3304.0,-0.04292543398817562
3312.0,-0.04930646527527837
3320.0,-0.04381270995048394
3328.0,-0.03807675583463325
3336.0,-0.038068975714804214
3344.0,-0.04812698009878785
3352.0,-0.07024792053591193
3360.0,-0.054328547600436
3368.0,0.14332526723305644
3376.0,0.6450819855235205
3384.0,1.1607788235785024
3392.0,1.2115463023235395
3400.0,0.7469037982627657
3408.0,0.19792902922489072
3416.0,-0.04852445212197993
3424.0,-0.08064303407844199
3432.0,-0.054999184340203615
3440.0,-0.03361284914349849
3448.0,-0.026000749599648886
3456.0,-0.028132259915236654
3464.0,-0.03715543723336635
3472.0,-0.046104582526355825
3480.0,-0.047226846549169185
3488.0,-0.04213125973591389
3496.0,-0.03995408499269125
3504.0,-0.040353711892071646
3512.0,-0.03606313832528502
3520.0,-0.03511695632404839
3528.0,-0.03621485044463468
3536.0,-0.0350950942087449
3544.0,-0.03502146403972753
3552.0,-0.03810690121077468
3560.0,-0.04215338336770191
3568.0,-0.04257548256765843
3576.0,-0.04265947746499073
3584.0,-0.04365045033729427
3592.0,-0.04342333992488637
3600.0,-0.04624435958469279
3608.0,-0.05416207533364718
3616.0,-0.05581841240105732
3624.0,-0.04814109608543075
3632.0,-0.043178729602258624
3640.0,-0.04889926096578701
3648.0,-0.057726611506754046
3656.0,-0.060980679922661526
3664.0,-0.055055551753104066
3672.0,-0.048690138426082476
3680.0,-0.048766831112364135
3688.0,-0.04870731638137758
3696.0,-0.04341960395137365
3704.0,-0.03537815056438886
3712.0,-0.031042925901243443
3720.0,-0.030781175787856264
3728.0,-0.030796533184462977
3736.0,-0.03191547276377461
3744.0,-0.03247834251073213
3752.0,-0.03269632253329049
3760.0,-0.03464734089651842
3768.0,-0.0406648213813668
3776.0,-0.047299785770058625
3784.0,-0.04599933066628157
3792.0,-0.042048651372203066
3800.0,-0.03568927769103826
3808.0,-0.030657495743124766
3816.0,-0.0332018221557272
3824.0,-0.04069240393943331
3832.0,-0.044942912800496365
3840.0,-0.04109982271241207
3848.0,-0.036513546146145825
3856.0,-0.03940512717105354
3864.0,-0.050134837533482426
3872.0,-0.053925225499984665
3880.0,-0.04540246064761625
3888.0,-0.041560805445262076
3896.0,-0.04511356235243183
3904.0,-0.04442513823888289
3912.0,-0.04007412516245742
3920.0,-0.04240047144618796
3928.0,-0.050859136572280736
3936.0,-0.054061771348774865
3944.0,-0.05039885868565055
3952.0,-0.04662605563244726
3960.0,-0.049543823698236886
3968.0,-0.05594079344774372
3976.0,-0.0605269499979865
3984.0,-0.06222740806915629
3992.0,-0.058821442345437056
4000.0,-0.05187939654409775
4008.0,-0.04662898232903926
4016.0,-0.046803059855746704
4024.0,-0.04878060883822961
4032.0,-0.04829050340622004
4040.0,-0.050444986584747636
4048.0,-0.05984924114496956
4056.0,-0.06406285461461815
4064.0,-0.0600770125064658
4072.0,-0.05867197699977395
4080.0,-0.05670292068390538
4088.0,-0.05309627762351979
4096.0,-0.04876419853557934
4104.0,-0.045004053420931174
4112.0,-0.04196120174824096
4120.0,-0.040635303619329245
4128.0,-0.04169149069499966
4136.0,-0.04341224390332014
4144.0,-0.0423346833345594
4152.0,-0.049410316422855344
4160.0,-0.07712034671376043
4168.0,-0.0972552330275784
4176.0,0.010238206443726638
4184.0,0.425908280687494
4192.0,1.0374534500730865
4200.0,1.3507136015447867
4208.0,1.145663587663548
4216.0,0.5469942788829784
4224.0,0.06512330900942248
4232.0,-0.09120859299116088
4240.0,-0.09076381541294284
4248.0,-0.06761624425966827
4256.0,-0.05873833526548864
4264.0,-0.055928281224861015
4272.0,-0.05097842072433212
4280.0,-0.04386003345364666
4288.0,-0.040284264789015485
4296.0,-0.04513547681114023
4304.0,-0.05526866930274432
4312.0,-0.05909615066211782
4320.0,-0.06087811920563407
4328.0,-0.06803345763017192
4336.0,-0.07069478458919153
4344.0,-0.0657272354497282
4352.0,-0.056155159347493225
4360.0,-0.050636933023508676
4368.0,-0.05512461659961912
4376.0,-0.06195138053140491
4384.0,-0.0652821255051254
4392.0,-0.06301584517180814
4400.0,-0.05793879418518337
4408.0,-0.05693743862327262
4416.0,-0.05729022536443489
4424.0,-0.05743464762391419
4432.0,-0.028114258109362127
4440.0,0.05733945910696919
4448.0,0.14398421538041833
4456.0,0.11011005229759184
4464.0,0.0483612515774942
4472.0,0.007344465187302815
4480.0,-0.038559980148708706
4488.0,-0.06280636618764476
4496.0,-0.07053870180842788
4504.0,-0.06821659416699914
4512.0,-0.0583823484284625
4520.0,-0.04858969082450257
4528.0,-0.044274065631407344
4536.0,-0.04231116280448625
4544.0,-0.04222167877030388
4552.0,-0.043512331630989096
4560.0,-0.04266412163302795
4568.0,-0.03963177342519
4576.0,-0.039595831250824616
4584.0,-0.04095340903205459
4592.0,-0.037636086160016693
4600.0,-0.035928101299787615
4608.0,-0.03694320389329027
4616.0,-0.04282262636816213
4624.0,-0.05653577661755266
4632.0,-0.06681744438630194
4640.0,-0.06525275663878653
4648.0,-0.05713871952804025
4656.0,-0.04954965771036659
4664.0,-0.04700336975220286
4672.0,-0.049005981632294436
4680.0,-0.05078723252671669
4688.0,-0.04813116781806096
4696.0,-0.046397178697915514
4704.0,-0.05084642157645977
4712.0,-0.05391899906818137
4720.0,-0.055688441057441654
4728.0,-0.056500554629419816
4736.0,-0.053490854845302985
4744.0,-0.05145678377444272
4752.0,-0.04982277427368016
4760.0,-0.043466969630698626
4768.0,-0.042913775180514174
4776.0,-0.048432745612624464
4784.0,-0.05424272353192226
4792.0,-0.05940065746914866
4800.0,-0.061410643921892535
4808.0,-0.06353499280591825
4816.0,-0.0696846571713574
4824.0,-0.06657113945857254
4832.0,-0.05468350885548472
4840.0,-0.04627796519450846
4848.0,-0.04888040111514662
4856.0,-0.05489988066761433
4864.0,-0.05738593615215262
4872.0,-0.055989405423478154
4880.0,-0.05309588109840323
4888.0,-0.050385384017491854
4896.0,-0.046060504545153036
4904.0,-0.04643732766372882
4912.0,-0.05481860760397729
4920.0,-0.060954306434597996
4928.0,-0.0590332940885759
4936.0,-0.0498788591023747
4944.0,-0.04136945043811967
4952.0,-0.04165259065170749
4960.0,-0.04540644512500343
4968.0,-0.045106610192316446
4976.0,-0.04095336203689013
4984.0,-0.04565666654732096
4992.0,-0.07207295932968749
5000.0,-0.10908852644812907
5008.0,-0.07988346142961329
5016.0,0.18508503540089646
5024.0,0.7794262159108589
5032.0,1.30808670051431
5040.0,1.3739412841379373
5048.0,0.9558771745635023
5056.0,0.33353414695194594
5064.0,-0.020574044188699753
5072.0,-0.09624421866951682
5080.0,-0.07306613324767364
5088.0,-0.04639127149714252
5096.0,-0.03707023194216762
5104.0,-0.04003124757792592
5112.0,-0.04413086724569487
5120.0,-0.0437766969784525
5128.0,-0.04375929458015956
5136.0,-0.047113223776498125
5144.0,-0.05049324410851557
5152.0,-0.05146147951189527
5160.0,-0.052024493711762494
5168.0,-0.05186096221393798
5176.0,-0.05207465317302133
5184.0,-0.05564032603107738
5192.0,-0.0618235292875158
5200.0,-0.06249743512214347
5208.0,-0.055387375552354054
5216.0,-0.04939623524400321
5224.0,-0.04578007299742064
5232.0,-0.04560237042799271
5240.0,-0.05066638419264396
5248.0,-0.05895307397170173
5256.0,-0.05820139011917297
5264.0,-0.05709904777822746
5272.0,-0.06306672561613187
5280.0,-0.06414663825508461
5288.0,-0.06812444787170088
5296.0,-0.07231696016204185
5304.0,-0.06652818541679312
5312.0,-0.056834078377822325
5320.0,-0.05288798565457358
5328.0,-0.05293463679772576
5336.0,-0.04925483484276148
5344.0,-0.04353793740710423
5352.0,-0.045961440696689775
5360.0,-0.049477901221836755
5368.0,-0.050002496149995
5376.0,-0.05184072406073365
5384.0,-0.05156520556284951
5392.0,-0.04625165679604324
5400.0,-0.040934332909148025
5408.0,-0.03889810393808738
5416.0,-0.04119733807108308
5424.0,-0.0473633147736027
5432.0,-0.04869918550907395
5440.0,-0.04336501593112937
5448.0,-0.03971004542605697
5456.0,-0.04252810528296899
5464.0,-0.04535267911962861
5472.0,-0.0473416919690316
5480.0,-0.04763192712944685
5488.0,-0.04975892598160816
5496.0,-0.04862653541767257
5504.0,-0.046270256073381796
5512.0,-0.04890654597461479
5520.0,-0.05561139942867133
5528.0,-0.05450527565499668
5536.0,-0.0423384948208572
5544.0,-0.0352788981397065
5552.0,-0.03841786597809898
5560.0,-0.04777383024981
5568.0,-0.05480945018836793
5576.0,-0.052806454667129694
5584.0,-0.04491151498649798
5592.0,-0.03904186845814128
5600.0,-0.03693559630693061
5608.0,-0.04028037289099792
5616.0,-0.04644688943404708
5624.0,-0.05092614328805666
5632.0,-0.05021401003565467
5640.0,-0.04675953252560424
5648.0,-0.045160149209857274
5656.0,-0.049670826164369436
5664.0,-0.05453941088829409
5672.0,-0.05703848198460284
5680.0,-0.05947796781529678
5688.0,-0.06199343354874155
5696.0,-0.0640887755996835
5704.0,-0.0645023661888462
5712.0,-0.0599673790011641
5720.0,-0.055285610482067926
5728.0,-0.050868746594896
5736.0,-0.04544765585281443
5744.0,-0.03985450388722377
5752.0,-0.04129868722230045
5760.0,-0.049034455654892166
5768.0,-0.05408248685399632
5776.0,-0.05428885477292477
5784.0,-0.0551393508919803
5792.0,-0.06232388898919619
5800.0,-0.0632003344348319
5808.0,-0.05274818502135664
5816.0,-0.04272190582246538
5824.0,-0.04464705344727958
5832.0,-0.066729002227257
5840.0,-0.09790117901476839
5848.0,-0.05707118433880415
5856.0,0.24086741183195226
5864.0,0.851984653475941
5872.0,1.3636650362408085
5880.0,1.4731811041453553
5888.0,1.1562348600328733
5896.0,0.529616982499118
5904.0,0.04364591518262112
5912.0,-0.1137006302615932
5920.0,-0.11236483703407926
5928.0,-0.08526707725192749
5936.0,-0.06918423388733716
5944.0,-0.06273466100745015
5952.0,-0.06135600958412129
5960.0,-0.06453622640681819
5968.0,-0.07159338687907449
5976.0,-0.07334829760828328
5984.0,-0.07036847785225214
5992.0,-0.07018594488309367
6000.0,-0.0734345321410503
6008.0,-0.07587849524061482
6016.0,-0.07364716569257032
6024.0,-0.06832964994980097
6032.0,-0.06634747950065156
6040.0,-0.07061731293832384
6048.0,-0.07983213311062005
6056.0,-0.0875115812976093
6064.0,-0.08946885822452959
6072.0,-0.08403650182670853
6080.0,-0.0735761464526662
6088.0,-0.05667968741098881
6096.0,-0.043376227743149594
6104.0,-0.030890451879200424
6112.0,0.02437151771401109
6120.0,0.09916044974079716
6128.0,0.09743093440829079
6136.0,0.04598932273297687
6144.0,-0.015679671490788274
6152.0,-0.06666320830158935
6160.0,-0.08438980054157703
6168.0,-0.0848644748602192
6176.0,-0.08010306314791879
6184.0,-0.07057459826495588
6192.0,-0.05988242319886983
6200.0,-0.05314028019500017
6208.0,-0.05279975198274066
6216.0,-0.05609570820297743
6224.0,-0.056203483160868796
6232.0,-0.052479142357113734
6240.0,-0.05153861905335124
6248.0,-0.05671473591698813
6256.0,-0.06584240309322982
6264.0,-0.06851067227842596
6272.0,-0.06449661383062495
6280.0,-0.05796842989959383
6288.0,-0.05562892883599431
6296.0,-0.059359837514236985
6304.0,-0.06253201312800986
6312.0,-0.061089455141021154
6320.0,-0.05907808643961755
6328.0,-0.06048931390555838
6336.0,-0.06690505411984238
6344.0,-0.07441157585757488
6352.0,-0.0755544210337343
6360.0,-0.07395283934981918
6368.0,-0.06976703150061772
6376.0,-0.06619991274072944
6384.0,-0.0650595491990727
6392.0,-0.06628316083046627
6400.0,-0.06741650852335387
6408.0,-0.07107270282138974
6416.0,-0.07205877306312877
6424.0,-0.07216612745729267
6432.0,-0.0759129571695271
6440.0,-0.07548212313166791
6448.0,-0.07316887118431374
6456.0,-0.07330602546405812
6464.0,-0.0693746242652969
6472.0,-0.06307262179148358
6480.0,-0.062286969616724405
6488.0,-0.06934388140889047
6496.0,-0.07675611112086698
6504.0,-0.07838850865016897
6512.0,-0.07467376084615103
6520.0,-0.0693028016745545
6528.0,-0.0699831214010869
6536.0,-0.0755699991700764
6544.0,-0.08095929919031757
6552.0,-0.08379752331859765
6560.0,-0.08025076773914082
6568.0,-0.06977013803175874
6576.0,-0.06049213510897811
6584.0,-0.057499505725685275
6592.0,-0.05894322607464254
6600.0,-0.06082821990100423
6608.0,-0.06380761697651863
6616.0,-0.07151745740749559
6624.0,-0.08116798766658159
6632.0,-0.08521606964573504
6640.0,-0.08143888315846345
6648.0,-0.07204217837552332
6656.0,-0.07592777283464486
6664.0,-0.10358494045605862
6672.0,-0.13731553406101724
6680.0,-0.09690847114070818
6688.0,0.19937195109998304
6696.0,0.81999970470364
6704.0,1.3512414503028591
6712.0,1.476399774429246
6720.0,1.1814872881846914
6728.0,0.5659580694330509
6736.0,0.07447724757438258
6744.0,-0.090714008569978
6752.0,-0.09359733033308422
6760.0,-0.06822332045392815
6768.0,-0.055034895372346064
6776.0,-0.049873204798472626
6784.0,-0.04975515902637844
6792.0,-0.05235895296450113
6800.0,-0.05025216674361283
6808.0,-0.04731302210499515
6816.0,-0.04849069391851678
6824.0,-0.04742176908036345
6832.0,-0.04544525633332636
6840.0,-0.0474748387272381
6848.0,-0.051839229424401695
6856.0,-0.05456538671083386
6864.0,-0.05951901361739584
6872.0,-0.06697343028008187
6880.0,-0.07038205813363134
6888.0,-0.06932666062490078
6896.0,-0.06623518720760682
6904.0,-0.06111694842859579
6912.0,-0.050721559369584016
6920.0,-0.042095662497809216
6928.0,-0.048278384359040874
6936.0,-0.059515705971795375
6944.0,-0.06365496913438592
6952.0,-0.056366814691270785
6960.0,-0.0469112953500192
6968.0,-0.050222958561650266
6976.0,-0.05947556136610807
6984.0,-0.06149085695957722
6992.0,-0.06141200038850312
7000.0,-0.06565980234740051
7008.0,-0.06661104338719623
7016.0,-0.06001009239445578
7024.0,-0.05296474404014504
7032.0,-0.05146443912409754
7040.0,-0.04808923546157759
7048.0,-0.04272186064626476
7056.0,-0.041965263786236995
7064.0,-0.04472361377540817
7072.0,-0.04715147277508449
7080.0,-0.04542118047170272
7088.0,-0.041684207724349435
7096.0,-0.04038635849735018
7104.0,-0.04191677144901847
7112.0,-0.045412756751874485
7120.0,-0.048963175762501886
7128.0,-0.04908311982923718
7136.0,-0.04896159326616198
7144.0,-0.049615314008650484
7152.0,-0.051286490501223435
7160.0,-0.054120472951662654
7168.0,-0.053037975826360106
7176.0,-0.056725144377122
7184.0,-0.06774085449655806
7192.0,-0.07467419311068324
7200.0,-0.06622011147281978
7208.0,-0.05061075020318898
7216.0,-0.04479505906119978
7224.0,-0.04717422645594093
7232.0,-0.051299127816379214
7240.0,-0.05522074497442083
7248.0,-0.06031796741216588
7256.0,-0.06694026707795778
7264.0,-0.07258951837287712
7272.0,-0.07286890711923452
7280.0,-0.07024133309477401
7288.0,-0.06780872756052331
7296.0,-0.0645053725080545
7304.0,-0.06356330395347774
7312.0,-0.06081016316546259
7320.0,-0.05657203508996751
7328.0,-0.05217264247780354
7336.0,-0.05096896416962986
7344.0,-0.055849234854190556
7352.0,-0.061069011200847845
7360.0,-0.060390476675488615
7368.0,-0.05378780778781446
7376.0,-0.05379816908467092
7384.0,-0.06855621536155838
7392.0,-0.0955181778694689
7400.0,-0.11593635009591913
7408.0,-0.04053024448742285
7416.0,0.3034562981851624
7424.0,0.9046804353494335
7432.0,1.3154296600933855
7440.0,1.233405270679919
7448.0,0.7051897170449348
7456.0,0.15203880431639394
7464.0,-0.07746462912007723
7472.0,-0.09914131038700683
7480.0,-0.07369700935990887
7488.0,-0.061884247174307926
7496.0,-0.06503639827127224
7504.0,-0.06977148352696233
7512.0,-0.07378147103845525
7520.0,-0.07240160443620608
7528.0,-0.06417077665187226
7536.0,-0.06032146047757135
7544.0,-0.06513828986832625
7552.0,-0.07215163614854438
7560.0,-0.07142749157838733
7568.0,-0.06250095895739913
7576.0,-0.05525744248580578
7584.0,-0.05286944337556366
7592.0,-0.05563282400912399
7600.0,-0.06301957115097967
7608.0,-0.07148865341959419
7616.0,-0.07388733440794391
7624.0,-0.06406231554992052
7632.0,-0.05159217135735491
7640.0,-0.045835068688799226
7648.0,-0.03482849513990967
7656.0,-0.00795965557863701
7664.0,0.01205161098841381
7672.0,0.02372732114142891
7680.0,0.016165841204767592
7688.0,-0.02405998884024579
7696.0,-0.05143866442862883
7704.0,-0.06537164731165698
7712.0,-0.07107739712616083
7720.0,-0.06470655094560586
7728.0,-0.05892960809726025
7736.0,-0.061755974862659095
7744.0,-0.05846297006865046
7752.0,-0.04852683242873457
7760.0,-0.046854377044593436
7768.0,-0.05000547013414502
7776.0,-0.054695852595083395
7784.0,-0.05938740232196319
7792.0,-0.057910770191852395
7800.0,-0.04942552540259955
7808.0,-0.04109344664780632
7816.0,-0.03953615032243119
7824.0,-0.04296126595360207
7832.0,-0.046471094740993146
7840.0,-0.050736599076626476
7848.0,-0.05486506347133155
7856.0,-0.05797447716616813
7864.0,-0.05708885791829127
7872.0,-0.0544096440741527
7880.0,-0.053132952930648736
7888.0,-0.055796857809533036
7896.0,-0.059102622754018716
7904.0,-0.06403313897905016
7912.0,-0.06939177467505796
7920.0,-0.06790803111620268
7928.0,-0.06518344052757086
7936.0,-0.0646196715964423
7944.0,-0.06443576890250532
7952.0,-0.06286618360039438
7960.0,-0.059089560219863724
7968.0,-0.05723113838013835
7976.0,-0.06063325499707183
7984.0,-0.06657999662175533
7992.0,-0.07113254824443203
8000.0,-0.07243010296348297
8008.0,-0.07048406127537439
8016.0,-0.06464207403168756
8024.0,-0.06197762793106651
8032.0,-0.06694027156866168
8040.0,-0.07071884629544588
8048.0,-0.07023859571811075
8056.0,-0.06808361901181005
8064.0,-0.06897487014230666
8072.0,-0.07314346648904047
8080.0,-0.07505287009690058
8088.0,-0.07116087942138509
8096.0,-0.06493901669786864
8104.0,-0.06991030407770445
8112.0,-0.0950571150764317
8120.0,-0.11299999175440605
8128.0,0.00571374341702811
8136.0,0.4423921034109412
8144.0,1.0661740262417136
8152.0,1.4097176776733655
8160.0,1.3203362660662479
8168.0,0.825791268963349
8176.0,0.2297092205633185
8184.0,-0.06219984814958753
8192.0,-0.11035738749894256
8200.0,-0.09017173609031756
8208.0,-0.06677438248039655
8216.0,-0.05226864281991517
8224.0,-0.04813665134911411
8232.0,-0.04815145668473086
8240.0,-0.05207938407310017
8248.0,-0.05835067633696276
8256.0,-0.05822134180196316
8264.0,-0.05441656074445317
8272.0,-0.054002374382575886
8280.0,-0.05519638993621178
8288.0,-0.05753736547601737
8296.0,-0.061046482875161644
8304.0,-0.06149728958725857
8312.0,-0.0602661753037192
8320.0,-0.055805153299794456
8328.0,-0.052350104685019314
8336.0,-0.05344488171503816
8344.0,-0.058301441027777595
8352.0,-0.0699699716628118
8360.0,-0.0756370205158123
8368.0,-0.06312055284221339
8376.0,-0.043828244643530634
8384.0,-0.022462876176368173
8392.0,-0.003167778153360761
8400.0,-0.0259343903042113
8408.0,-0.05363414709645667
8416.0,-0.053502014654145245
8424.0,-0.043289806771028956
8432.0,-0.045183104253987035
8440.0,-0.053991516061432765
8448.0,-0.05409832640570448
8456.0,-0.0494679989907462
8464.0,-0.047333289956356474
8472.0,-0.05102028084117186
8480.0,-0.051461051189877365
8488.0,-0.042655851840475975
8496.0,-0.0353506459714918
8504.0,-0.033651223887902884
8512.0,-0.039258437814314075
8520.0,-0.046150542469478535
8528.0,-0.04750322188973576
8536.0,-0.046904847327350216
8544.0,-0.049783962805585884
8552.0,-0.04908999791735062
8560.0,-0.04287658877551472
8568.0,-0.0437504389313044
8576.0,-0.049794044634413205
8584.0,-0.05047049230736471
8592.0,-0.04569767249397385
8600.0,-0.04595074403495776
8608.0,-0.0499065000631753
8616.0,-0.04768759825865647
8624.0,-0.04289459252893961
8632.0,-0.04252051756328424
8640.0,-0.04472373304915158
8648.0,-0.045268617681035746
8656.0,-0.04536817490748185
8664.0,-0.04749623806973034
8672.0,-0.04992355270211023
8680.0,-0.04828898382324175
8688.0,-0.050411686451566864
8696.0,-0.052884970697847464
8704.0,-0.047237370532027576
8712.0,-0.0445951298465524
8720.0,-0.04875281198940451
8728.0,-0.053630607811357735
8736.0,-0.05337650953552572
8744.0,-0.05108064466266614
8752.0,-0.05117470169461615
8760.0,-0.05250333883328105
8768.0,-0.05496799973380201
8776.0,-0.05409654452821219
8784.0,-0.0476818714863955
8792.0,-0.04298250110427993
8800.0,-0.04156404996069206
8808.0,-0.04119242673016153
8816.0,-0.04121427634615441
8824.0,-0.038489051366031084
8832.0,-0.040410071871884855
8840.0,-0.04733876632943384
8848.0,-0.050788871578623156
8856.0,-0.04878508492059762
8864.0,-0.04356478331811593
8872.0,-0.04238767057679474
8880.0,-0.044503023191622366
8888.0,-0.043363726137763424
8896.0,-0.04059136899014564
8904.0,-0.04619432525482266
8912.0,-0.06608737509148006
8920.0,-0.09535506009739564
8928.0,-0.08070480794141967
8936.0,0.11862249751821316
8944.0,0.634945842066571
8952.0,1.22136783996703
8960.0,1.4662984239976575
8968.0,1.2819806205487112
8976.0,0.7233019839121374
8984.0,0.16745194603896515
8992.0,-0.05675462783543243
9000.0,-0.07465535960963485
9008.0,-0.048890859363182965
9016.0,-0.03447330320293867
9024.0,-0.030097902744877423
9032.0,-0.03034830395145347
9040.0,-0.032468296707034265
9048.0,-0.03303804664084456
9056.0,-0.03387569179114877
9064.0,-0.035071511429405296
9072.0,-0.034836197990689606
9080.0,-0.03298541732079205
9088.0,-0.03247456720328519
9096.0,-0.03398756867926048
9104.0,-0.03231278055119051
9112.0,-0.03224972497418708
9120.0,-0.03353305099057093
9128.0,-0.03361223189797123
9136.0,-0.035563404609150896
9144.0,-0.038796718238087564
9152.0,-0.04088151123410276
9160.0,-0.04048228655789039
9168.0,-0.03889396064294735
9176.0,-0.038126926007013805
9184.0,-0.03555878470291533
9192.0,-0.03374184535503207
9200.0,-0.03664559994446111
9208.0,-0.039668102935090786
9216.0,-0.0352669052963806
9224.0,-0.03040580369768253
9232.0,-0.037910266488808464
9240.0,-0.04128763752055446
9248.0,-0.04036778550366354
9256.0,-0.03704924668927557
9264.0,-0.032916695144640254
9272.0,-0.03308929087287296
9280.0,-0.030967593615087052
9288.0,-0.024762019490062195
9296.0,-0.02358980746842086
9304.0,-0.02861583981996342
9312.0,-0.030987004343237243
9320.0,-0.0294495532585815
9328.0,-0.027191286022486202
9336.0,-0.026651125263267805
9344.0,-0.0322526798845548
9352.0,-0.03383060393264438
9360.0,-0.02922539024866319
9368.0,-0.029527173346412555
9376.0,-0.036137530030556655
9384.0,-0.0417425639384349
9392.0,-0.045214270760008224
9400.0,-0.0481972586359777
9408.0,-0.0448566773709558
9416.0,-0.04108479554451391
9424.0,-0.037291999600421184
9432.0,-0.03804958002151011
9440.0,-0.04093653514226931
9448.0,-0.04406837284000548
9456.0,-0.04879557326973709
9464.0,-0.05306918814719873
9472.0,-0.05210486283053995
9480.0,-0.046855391048772004
9488.0,-0.042344995325517186
9496.0,-0.04108144969150945
9504.0,-0.046352777846947794
9512.0,-0.05457266301790171
9520.0,-0.06124960758423989
9528.0,-0.06170707073957704
9536.0,-0.059195842847317555
9544.0,-0.06331838086920456
9552.0,-0.07183041302880733
9560.0,-0.07834322600652746
9568.0,-0.07541158159862672
9576.0,-0.07047092671017904
9584.0,-0.06675599732937113
9592.0,-0.0653343236382931
9600.0,-0.06405563157238835
9608.0,-0.06774494783094187
9616.0,-0.07517488872564974
9624.0,-0.07988908506579682
9632.0,-0.08178384237902643
9640.0,-0.08245254087063858
9648.0,-0.08396293615582637
9656.0,-0.08803912732389316
9664.0,-0.09474937466631275
9672.0,-0.10026198111923484
9680.0,-0.10162352656008004
9688.0,-0.1013506693632182
9696.0,-0.09925668208718882
9704.0,-0.09737433131484759
9712.0,-0.09885763959053925
9720.0,-0.10407211858782725
9728.0,-0.10742228557340568
9736.0,-0.10863490010049645
9744.0,-0.11491738261428702
9752.0,-0.12607654386358322
9760.0,-0.1296058227983583
9768.0,-0.12717577789145482
9776.0,-0.13073579305128227
9784.0,-0.1379492909437088
9792.0,-0.1408581672618801
9800.0,-0.14140938553623203
9808.0,-0.14117173848562087
9816.0,-0.14311784965569455
9824.0,-0.1455553383386455
9832.0,-0.1458459296391896
9840.0,-0.14498483339389703
9848.0,-0.14641201074449048
9856.0,-0.14949103115261803
9864.0,-0.15878392825129542
9872.0,-0.16981092223951463
9880.0,-0.17813857176581177
9888.0,-0.18003497992914086
9896.0,-0.17772906411283357
9904.0,-0.17648571203933736
9912.0,-0.17946594192712115
9920.0,-0.1858218904635431
9928.0,-0.1913362087719926
9936.0,-0.18978266576471267
9944.0,-0.18849052080395443
9952.0,-0.1933517333708602
9960.0,-0.202844636304987
9968.0,-0.21067810530615783
9976.0,-0.21845876121418653
9984.0,-0.22262091220478228
9992.0,-0.2301260171556123
10000.0,-0.23977206086943084
10008.0,-0.24400903870387042
10016.0,-0.2444057835637979
10024.0,-0.24549784876967762
10032.0,-0.2480869793706531
10040.0,-0.24622017476060995
10048.0,-0.2424306101670506
10056.0,-0.24413464517504224
10064.0,-0.24958495930305807
10072.0,-0.25435081650836827
10080.0,-0.25609632824200806
10088.0,-0.2634845278475973
10096.0,-0.2894767147296484
10104.0,-0.32372196845436224
10112.0,-0.313124446713792
10120.0,-0.11495958539546654
10128.0,0.38951168384195844
10136.0,0.8652773296968149
10144.0,0.7720415320578654
10152.0,0.22656434823849853
10160.0,-0.18294160948070942
10168.0,-0.3081546968683625
10176.0,-0.3065263209967155
10184.0,-0.28719764320832536
10192.0,-0.28071322113312397
10200.0,-0.2838986649740398
10208.0,-0.2943428440268713
10216.0,-0.3131503319732954
10224.0,-0.3317614376194347
10232.0,-0.34419225971281575
10240.0,-0.31978200672344836
10248.0,-0.1908437614624998
10256.0,0.05596485348784758
10264.0,0.2832536521206927
10272.0,0.5655132002392569
10280.0,0.8976047959243697
10288.0,1.0653167190300783
10296.0,1.088579317229013
10304.0,1.055287687692964
10312.0,1.0219776268151162
10320.0,1.0245443810859662
10328.0,1.0549049074396486
10336.0,1.0732200549374453
10344.0,1.0662462384870641
10352.0,1.057781739998533
10360.0,1.05978407560661
10368.0,1.0689628229794754
10376.0,1.0862872965262762
10384.0,1.091439012042873
10392.0,1.0822793640221555
10400.0,1.0703108209580887
10408.0,1.0519139556621486
10416.0,1.0319016095191662
10424.0,1.0248848379708508
10432.0,1.0324388567830414
10440.0,1.0451970781044786
10448.0,1.0446234734989677
10456.0,0.9627705471280433
10464.0,0.6438030569824761
10472.0,0.10396748419756413
10480.0,-0.26958276884284826
10488.0,-0.3640663852895892
10496.0,-0.34284649369858733
10504.0,-0.32470203066699055
10512.0,-0.32259690186324047
10520.0,-0.3133269494164924
10528.0,-0.30373266487348954
10536.0,-0.3045963711362576
10544.0,-0.31116909513974883
10552.0,-0.3122908253512803
10560.0,-0.3103242626948485
10568.0,-0.30932577219869006
10576.0,-0.3056810966802328
10584.0,-0.3072556534701751
10592.0,-0.3064069761300273
10600.0,-0.29815813188957574
10608.0,-0.2904831629704499
10616.0,-0.28615112662372155
10624.0,-0.27841934882733793
10632.0,-0.2654534710738952
10640.0,-0.2568906743036543
10648.0,-0.2540007657152103
10656.0,-0.2538455449882574
10664.0,-0.25345748500803167
10672.0,-0.24669454025260312
10680.0,-0.2383098847153576
10688.0,-0.2227044322781773
10696.0,-0.21467041018488336
10704.0,-0.22852660454152326
10712.0,-0.24367126595061844
10720.0,-0.24427685837865185
10728.0,-0.23193333690045598
10736.0,-0.22088489530412106
10744.0,-0.21730987940768728
10752.0,-0.2136077683544292
10760.0,-0.21421277442277642
10768.0,-0.21020606282361118
10776.0,-0.19585982401135638
10784.0,-0.18387938073608456
10792.0,-0.18713364528992626
10800.0,-0.2012278100797007
10808.0,-0.20860305903546933
10816.0,-0.19526339963403913
10824.0,-0.1767786885123342
10832.0,-0.1746702496662448
10840.0,-0.17417682864036932
10848.0,-0.17574599998704538
10856.0,-0.17748473247413474
10864.0,-0.17438217517069712
10872.0,-0.16789072437598815
10880.0,-0.1548889517087046
10888.0,-0.15237423249590487
10896.0,-0.15522551999829728
10904.0,-0.14805353412075456
10912.0,-0.13085612474591543
10920.0,-0.1088554892702944
10928.0,-0.11686827939601352
10936.0,-0.14413745162800168
10944.0,-0.150615946736865
10952.0,-0.13538969249911084
10960.0,-0.1188466221148536
10968.0,-0.1103755811926336
10976.0,-0.11124043258841998
10984.0,-0.13009321565605714
10992.0,-0.13869602911814846
11000.0,-0.13795856849175925
11008.0,-0.13196901496072663
11016.0,-0.1112270164377255
11024.0,-0.1072240725617309
11032.0,-0.13411086825276738
11040.0,-0.16634444977675417
11048.0,-0.14570934349433523
11056.0,0.046177389510102654
11064.0,0.4978671772558993
11072.0,1.0085279941032834
11080.0,1.1242773072318557
11088.0,0.7042933843944094
11096.0,0.15274247312981729
11104.0,-0.10399008543802148
11112.0,-0.14211809685989638
11120.0,-0.122417941281663
11128.0,-0.10685936301749374
11136.0,-0.09514068445780019
11144.0,-0.08687975202800764
11152.0,-0.0860282665785284
11160.0,-0.09032161617050596
11168.0,-0.09420029685050205
11176.0,-0.09333261686354748
11184.0,-0.09260397514486553
11192.0,-0.09260597392767068
11200.0,-0.09335889832552226
11208.0,-0.09195136726152557
11216.0,-0.0878383604797276
11224.0,-0.08306570562192853
11232.0,-0.07662750219440778
11240.0,-0.07520277834520288
11248.0,-0.08185444066377057
11256.0,-0.08698205435018525
11264.0,-0.08908539017294065
11272.0,-0.08709639480503419
11280.0,-0.08276182768292982
11288.0,-0.08030624662498359
11296.0,-0.06451898411593428
11304.0,-0.007397775880196331
11312.0,0.06951697317788952
11320.0,0.08793141676139352
11328.0,0.09223780974930182
11336.0,0.08820403941013413
11344.0,0.05739814281763922
11352.0,0.022008377234569793
11360.0,-0.03132603019101796
11368.0,-0.0564103669348993
11376.0,-0.05884272916759761
11384.0,-0.05273511554548735
11392.0,-0.04506436993478894
11400.0,-0.03974194306428451
11408.0,-0.0409166831807029
11416.0,-0.04564737139445342
11424.0,-0.04917264814759221
11432.0,-0.04611113757370991
11440.0,-0.03892542405880577
11448.0,-0.035215755997868047
11456.0,-0.036046588794099776
11464.0,-0.035561179350210734
11472.0,-0.032885287234756755
11480.0,-0.030616655635485813
11488.0,-0.03169543389340602
11496.0,-0.03326196875490797
11504.0,-0.0354171221812734
11512.0,-0.03744277432010971
11520.0,-0.036007302209685975
11528.0,-0.03362599768270735
11536.0,-0.03091930110891205
11544.0,-0.03311840325256696
11552.0,-0.03715900864098125
11560.0,-0.035644936218387914
11568.0,-0.03068261416199933
11576.0,-0.029648357089709438
11584.0,-0.031368770695823465
11592.0,-0.03306192957612251
11600.0,-0.03450193816329727
11608.0,-0.03521196814220738
11616.0,-0.03229256741091749
11624.0,-0.031337757366923714
11632.0,-0.03162186053413841
11640.0,-0.03292240336866614
11648.0,-0.032384635451701956
11656.0,-0.03314085247301139
11664.0,-0.03656859631850012
11672.0,-0.037502315154926975
11680.0,-0.03517143512736296
11688.0,-0.03704502877919076
11696.0,-0.043373163000026256
11704.0,-0.044186077058166164
11712.0,-0.03720882546897308
11720.0,-0.03249079912714494
11728.0,-0.03389557851531866
11736.0,-0.037176947528172806
11744.0,-0.0411858705780553
11752.0,-0.043581418986937605
11760.0,-0.04110733370389637
11768.0,-0.035229938546700326
11776.0,-0.031930127004223534
11784.0,-0.03471820390527156
11792.0,-0.036619801370901005
11800.0,-0.031163178945614517
11808.0,-0.025103418705639435
11816.0,-0.027475034603377132
11824.0,-0.04014644713057726
11832.0,-0.05333008055505834
11840.0,-0.0597400206707033
11848.0,-0.0576097532181829
11856.0,-0.04908899762332988
11864.0,-0.044646341094156404
11872.0,-0.045378004863070684
11880.0,-0.039542172399407695
11888.0,-0.03216830122732042
11896.0,-0.03058872586047482
11904.0,-0.03463312766806546
11912.0,-0.04069122611205602
11920.0,-0.04434532504943296
11928.0,-0.041872879154964335
11936.0,-0.03767835968398185
11944.0,-0.04056087854922757
11952.0,-0.046566830975570565
11960.0,-0.05024605387721507
11968.0,-0.06832556384986445
11976.0,-0.09609325147501388
11984.0,-0.040051575052932775
11992.0,0.28442208872820224
12000.0,0.892870654063469
12008.0,1.3431682238319667
12016.0,1.3379246908559073
12024.0,0.8829190870386973
12032.0,0.28613966060936474
12040.0,-0.02310795398424891
12048.0,-0.08425153812957371
12056.0,-0.06741904731110852
12064.0,-0.04757580188078991
12072.0,-0.03772487577458778
12080.0,-0.04169064297090904
12088.0,-0.04989340334739561
12096.0,-0.05223184224070916
12104.0,-0.050127437952251705
12112.0,-0.04679619660685273
12120.0,-0.04156699609423541
12128.0,-0.03763963554948586
12136.0,-0.03971057472237008
12144.0,-0.04637864051036246
12152.0,-0.04828936529607506
12160.0,-0.04418185676615931
12168.0,-0.03928342742234654
12176.0,-0.03705680829873294
12184.0,-0.03579065662839098
12192.0,-0.03906855933135878
12200.0,-0.05186488714628122
12208.0,-0.06348627287867248
12216.0,-0.06476015117040967
12224.0,-0.05676369104963975
12232.0,-0.04149262057217885
12240.0,-0.01038315920907272
12248.0,0.03443591989916419
12256.0,0.05224715305295466
12264.0,0.08713531175307417
12272.0,0.14386737467142796
12280.0,0.09425553441705388
12288.0,-0.005132594384972875
12296.0,-0.06427382376900032
12304.0,-0.07947071167508292
12312.0,-0.07102984736643024
12320.0,-0.05330132405465592
12328.0,-0.039855775568759466
12336.0,-0.03570977699324775
12344.0,-0.03522586628849994
12352.0,-0.03547868851119858
12360.0,-0.03522993172036757
12368.0,-0.036608122697569516
12376.0,-0.03498075211236216
12384.0,-0.033604263114853254
12392.0,-0.033692901713051615
12400.0,-0.03748625313822533
12408.0,-0.04168865791993329
12416.0,-0.04070898061957377
12424.0,-0.03474970219030059
12432.0,-0.03072218915482331
12440.0,-0.03180591053026188
12448.0,-0.03809416525975954
12456.0,-0.04271934436575539
12464.0,-0.044925529909375615
12472.0,-0.0427267127100896
12480.0,-0.03845554518013938
12488.0,-0.03648934644008174
12496.0,-0.039579958958049895
12504.0,-0.04050632955999862
12512.0,-0.037382607305977825
12520.0,-0.03739810412554209
12528.0,-0.041511386568518896
12536.0,-0.04366126390304124
12544.0,-0.044613834888642304
12552.0,-0.04691569498881942
12560.0,-0.047846476498783964
12568.0,-0.04342084975017435
12576.0,-0.041593686686491944
12584.0,-0.040003568670765044
12592.0,-0.04203645954758563
12600.0,-0.05090178378374622
12608.0,-0.05706507266452234
12616.0,-0.055915497545973095
12624.0,-0.05309999205116008
12632.0,-0.049386131203042055
12640.0,-0.04460947007844487
12648.0,-0.03823220425823632
12656.0,-0.036741963412217506
12664.0,-0.043201793376806595
12672.0,-0.051593105458554556
12680.0,-0.054863081185027716
12688.0,-0.05545304591833251
12696.0,-0.05352694190198853
12704.0,-0.0503679757020964
12712.0,-0.04585548612873762
12720.0,-0.04181549165602587
12728.0,-0.042487989689466606
12736.0,-0.04436536224591493
12744.0,-0.05081066810445405
12752.0,-0.05706003636595813
12760.0,-0.05906229811570786
12768.0,-0.05748562697495664
12776.0,-0.05925924599356391
12784.0,-0.06884192230069715
12792.0,-0.07354666631234263
12800.0,-0.06629545483362573
12808.0,-0.05727262251592698
12816.0,-0.05291470810851646
12824.0,-0.05210689092395435
12832.0,-0.05429385584403866
12840.0,-0.05183299884790536
12848.0,-0.04715052574209564
12856.0,-0.04440255723739602
12864.0,-0.04881094882442784
12872.0,-0.058110364626983865
12880.0,-0.06034246936708725
12888.0,-0.05337278525099093
12896.0,-0.057171889445029725
12904.0,-0.08606383685684324
12912.0,-0.11375203717902473
12920.0,-0.03470479987925888
12928.0,0.3347557621962126
12936.0,0.9569957850808352
12944.0,1.3547021759272226
12952.0,1.2747687685493572
12960.0,0.7569158675607819
12968.0,0.1818842291622875
12976.0,-0.07204798864151264
12984.0,-0.09846240587240249
12992.0,-0.07127329685210883
13000.0,-0.05785575389545534
13008.0,-0.055662166460054216
13016.0,-0.057797788564999446
13024.0,-0.06285913860569295
13032.0,-0.06601415953799347
13040.0,-0.06512959216689751
13048.0,-0.06621814517325036
13056.0,-0.06677045749755303
13064.0,-0.06482516096982331
13072.0,-0.061368483603413994
13080.0,-0.058355027023091186
13088.0,-0.05549782289123132
13096.0,-0.05475747142432246
13104.0,-0.0565390387311473
13112.0,-0.05020352255026314
13120.0,-0.032149030468550735
13128.0,-0.017295420054453062
13136.0,-0.03333529526778296
13144.0,-0.05441149780440995
13152.0,-0.0644881155086576
13160.0,-0.06592518522836206
13168.0,-0.05580251275400473
13176.0,-0.011116400101280531
13184.0,0.07837177379221494
13192.0,0.13742969526886392
13200.0,0.09976423146274979
13208.0,0.08346150663248295
13216.0,0.04277645173887526
13224.0,-0.01846270915624698
13232.0,-0.04616798647019897
13240.0,-0.05436198545249067
13248.0,-0.05505160154245173
13256.0,-0.05332066657282582
13264.0,-0.04806585031642787
13272.0,-0.043157423135038286
13280.0,-0.04039706407647846
13288.0,-0.039633502244203804
13296.0,-0.037455319103844566
13304.0,-0.03860457877678739
13312.0,-0.046029486132313197
13320.0,-0.048282818259478416
13328.0,-0.04450785873154545
13336.0,-0.044328418606838255
13344.0,-0.04893698584912305
13352.0,-0.054508685088151015
13360.0,-0.05762672797828015
13368.0,-0.053038420024616506
13376.0,-0.04809442682090397
13384.0,-0.05048912779460654
13392.0,-0.05281835151652799
13400.0,-0.05331230978996597
13408.0,-0.053830860763102895
13416.0,-0.05129121691266835
13424.0,-0.04919668408885776
13432.0,-0.051482038778709265
13440.0,-0.05352342601924728
13448.0,-0.05214889405921765
13456.0,-0.05750715793976083
13464.0,-0.06720559890176017
13472.0,-0.06908470964983715
13480.0,-0.06231062752774952
13488.0,-0.05169975905048754
13496.0,-0.04490206339879786
13504.0,-0.045375092438158134
13512.0,-0.04664891160085809
13520.0,-0.04314487055096737
13528.0,-0.041676703038113064
13536.0,-0.04664744317533783
13544.0,-0.052237822440959966
13552.0,-0.05860713595350743
13560.0,-0.060239568775197164
13568.0,-0.05373754402574805
13576.0,-0.04698240382103516
13584.0,-0.04716689046521051
13592.0,-0.05394789354351999
13600.0,-0.06133384873036721
13608.0,-0.06493356233909926
13616.0,-0.06109289020929069
13624.0,-0.05342714019952323
13632.0,-0.04757701917954928
13640.0,-0.04544260459875874
13648.0,-0.0484294408688578
13656.0,-0.0476676297324026
13664.0,-0.042765790621346764
13672.0,-0.03932772865300496
13680.0,-0.04133867280172443
13688.0,-0.04595951549079535
13696.0,-0.048247106846864105
13704.0,-0.045455481509248954
13712.0,-0.04543687607956152
13720.0,-0.053940615511810876
13728.0,-0.07217712925326926
13736.0,-0.09808710418497962
13744.0,-0.10180894032814719
13752.0,0.03329996945346895
13760.0,0.47229482838538345
13768.0,1.0701018647918665
13776.0,1.3255675160399822
13784.0,1.0549423756583116
13792.0,0.4521006493650626
13800.0,0.029399871487315155
13808.0,-0.08801373913290865
13816.0,-0.0749198685724963
13824.0,-0.04923225588487205
13832.0,-0.039467634838404694
13840.0,-0.0373022221845449
13848.0,-0.03723272947878817
13856.0,-0.036597732558084566
13864.0,-0.04062983414217065
13872.0,-0.04692808711007403
13880.0,-0.05032670082848527
13888.0,-0.05088710297212865
13896.0,-0.05184237229091308
13904.0,-0.05193491553257696
13912.0,-0.05185338009698707
13920.0,-0.05204856293273874
13928.0,-0.053689828542554004
13936.0,-0.05450389566532441
13944.0,-0.05216306771729706
13952.0,-0.052611398536609
13960.0,-0.0532707244484514
13968.0,-0.0496228302665061
13976.0,-0.04456956567279728
13984.0,-0.04448865186430549
13992.0,-0.04995961248691505
14000.0,-0.05700170543275039
14008.0,-0.05442828469543068
14016.0,-0.041690099046015394
14024.0,-0.031983863478346336
14032.0,-0.03408684129291998
14040.0,-0.039769938334437795
14048.0,-0.055482590093765646
14056.0,-0.05892053300312904
14064.0,-0.04689395232871302
14072.0,-0.03818212603186664
14080.0,-0.039980892419188015
14088.0,-0.04652478983119606
14096.0,-0.046345319486430364
14104.0,-0.039828135737061614
14112.0,-0.03685593889474788
14120.0,-0.03725342381870264
14128.0,-0.038697590059953664
14136.0,-0.03902812357314528
14144.0,-0.03787325406051273
14152.0,-0.03563991282326386
14160.0,-0.03416032583381238
14168.0,-0.03591812449151677
14176.0,-0.03962270098935856
14184.0,-0.044128471350297224
14192.0,-0.04362423523460418
14200.0,-0.04164917783679803
14208.0,-0.04161973077970968
14216.0,-0.0390894757725488
14224.0,-0.0361334873880814
14232.0,-0.033614166543568046
14240.0,-0.032853919473042385
14248.0,-0.03598049799524883
14256.0,-0.045113089064839726
14264.0,-0.055353581657107416
14272.0,-0.056581138074126076
14280.0,-0.046172698540305125
14288.0,-0.03622272155173756
14296.0,-0.03147464361404041
14304.0,-0.028744128532993206
14312.0,-0.02990662635512581
14320.0,-0.04013005422734325
14328.0,-0.05247539483435363
14336.0,-0.05468456164702597
14344.0,-0.050780640746998715
14352.0,-0.04786048659013297
14360.0,-0.04447249167963313
14368.0,-0.04042672261244859
14376.0,-0.03834600369611771
14384.0,-0.036985322207391175
14392.0,-0.037508825076018625
14400.0,-0.038519530111309284
14408.0,-0.04033010293377673
14416.0,-0.04460966226032306
14424.0,-0.04649617414262356
14432.0,-0.04880440348683192
14440.0,-0.05709548350297806
14448.0,-0.06029601306121979
14456.0,-0.05341081676497363
14464.0,-0.0481325040855575
14472.0,-0.04671690746353437
14480.0,-0.04717849081654069
14488.0,-0.048206299851985684
14496.0,-0.04742604217218439
14504.0,-0.045287849974014555
14512.0,-0.043711381845687645
14520.0,-0.04634371213425274
14528.0,-0.04847859026726989
14536.0,-0.047287566418734744
14544.0,-0.04837220166565623
14552.0,-0.050507977429281196
14560.0,-0.04793549689863703
14568.0,-0.04136153059647657
14576.0,-0.03944090021517162
14584.0,-0.050806658313184795
14592.0,-0.07596178497173109
14600.0,-0.10108960118133295
14608.0,-0.04834534452967271
14616.0,0.24541886960271792
14624.0,0.8247364699073622
14632.0,1.2929148991405832
14640.0,1.2753713453298667
14648.0,0.7872740643335131
14656.0,0.21794524166695245
14664.0,-0.0490335666202032
14672.0,-0.08698535056763511
14680.0,-0.061873919154335384
14688.0,-0.04340080608431145
14696.0,-0.03603368459829612
14704.0,-0.03491370923669326
14712.0,-0.03989146444836197
14720.0,-0.047862915056545656
14728.0,-0.04967331240701601
14736.0,-0.04770439704376923
14744.0,-0.0501037904196633
14752.0,-0.05325667227359767
14760.0,-0.054428223030234445
14768.0,-0.054218133556863765
14776.0,-0.050009724248304625
14784.0,-0.0477350896556931
14792.0,-0.045589915306157566
14800.0,-0.0417611948994151
14808.0,-0.04209509709296061
14816.0,-0.04571194269530402
14824.0,-0.04827427718836388
14832.0,-0.049936479294347066
14840.0,-0.04121386778643823
14848.0,-0.02264394926525985
14856.0,-0.003653866926569841
14864.0,0.0003245522777946502
14872.0,-0.004653560865748327
14880.0,-0.002771680706402743
14888.0,-0.022830283591337652
14896.0,-0.03298850201667579
14904.0,-0.03158861992394634
14912.0,-0.034814501189508636
14920.0,-0.0348286539099405
14928.0,-0.03262488325194805
14936.0,-0.03299464549604288
14944.0,-0.0381224102963848
14952.0,-0.03764152131080527
14960.0,-0.03226481593309076
14968.0,-0.030859181702254462
14976.0,-0.02909993459324109
14984.0,-0.02665569614733381
14992.0,-0.02513374915180869
15000.0,-0.02519961463261659
15008.0,-0.027034861603542275
15016.0,-0.027548871108943176
15024.0,-0.029668099106410377
15032.0,-0.033731454668492936
15040.0,-0.03548752436527868
15048.0,-0.034338055700368325
15056.0,-0.030339852013967054
15064.0,-0.028578330039274315
15072.0,-0.02925918721028248
15080.0,-0.0323896892730063
15088.0,-0.03192792040316853
15096.0,-0.028024875459948723
15104.0,-0.024754576723530392
15112.0,-0.02106868549006479
15120.0,-0.020389515862454664
15128.0,-0.029558950833107344
15136.0,-0.040527921909402714
15144.0,-0.04452927348406407
15152.0,-0.03932054215207909
15160.0,-0.037235583356244446
15168.0,-0.04230606313184705
15176.0,-0.047979770459839935
15184.0,-0.047451073795130784
15192.0,-0.03730798474136923
15200.0,-0.02536073653800795
15208.0,-0.018067512068769373
15216.0,-0.015451429896432093
15224.0,-0.020014210997302353
15232.0,-0.025626351692287278
15240.0,-0.023845391415657786
15248.0,-0.021695634168132694
15256.0,-0.02606630948805139
15264.0,-0.02788132535359629
15272.0,-0.02356895418834649
15280.0,-0.023201033280128933
15288.0,-0.026816523857665718
15296.0,-0.031509000096625994
15304.0,-0.03452960719225412
15312.0,-0.03287090899736429
15320.0,-0.03023782740353053
15328.0,-0.029964753145528766
15336.0,-0.026808604029648075
15344.0,-0.023068035847470622
15352.0,-0.024798735490521064
15360.0,-0.027597959637926755
15368.0,-0.02686583030860713
15376.0,-0.026385433255357874
15384.0,-0.026691350967726298
15392.0,-0.025610497170477316
15400.0,-0.02643600636785341
15408.0,-0.030003012418269276
15416.0,-0.034386306591525195
15424.0,-0.038200021160834347
15432.0,-0.03764004053056296
15440.0,-0.03613458023126253
15448.0,-0.035014486456376795
15456.0,-0.03131350963993541
15464.0,-0.02741588579583702
15472.0,-0.02822122236050779
15480.0,-0.03197876526409668
15488.0,-0.03700877093450584
15496.0,-0.042974189803085615
15504.0,-0.04898002566035569
15512.0,-0.04832902966262151
15520.0,-0.04383172723743321
15528.0,-0.039432820516318454
15536.0,-0.035571004455445504
15544.0,-0.031925010138430236
15552.0,-0.02547028281974295
15560.0,-0.021287529429418205
15568.0,-0.021485857298210613
15576.0,-0.023263600991052538
15584.0,-0.02640162306137392
15592.0,-0.027797632923514733
15600.0,-0.026369062039672236
15608.0,-0.027982370112774525
15616.0,-0.03231801003211228
15624.0,-0.0347218865943658
15632.0,-0.04124350249840108
15640.0,-0.0627569607625269
15648.0,-0.07726474630518701
15656.0,0.017130882230739122
15664.0,0.38762408208258387
15672.0,0.9977242485630702
15680.0,1.3674275915639786
15688.0,1.2105041597018213
15696.0,0.6238571914323343
15704.0,0.09819857447926253
15712.0,-0.08928251098071872
15720.0,-0.09387449445851481
15728.0,-0.06354427691417096
15736.0,-0.04934706005872786
15744.0,-0.04842496768969918
15752.0,-0.04836366127511105
15760.0,-0.04833647836687227
15768.0,-0.048326825968539266
15776.0,-0.05000848415273191
15784.0,-0.05282441397613256
15792.0,-0.05336462023386043
15800.0,-0.05029530794168141
15808.0,-0.048572271808080464
15816.0,-0.05139502153054885
15824.0,-0.05533497611380502
15832.0,-0.05876820996345665
15840.0,-0.062453671630591324
15848.0,-0.06061549058464229
15856.0,-0.053116144479919455
15864.0,-0.04570303787860356
15872.0,-0.03863771587629618
15880.0,-0.03343209954681411
15888.0,-0.04228990019898942
15896.0,-0.05423581439543398
15904.0,-0.05381643877399696
15912.0,-0.031923042870270577
15920.0,0.0025285410905439764
15928.0,0.0077375248230857185
15936.0,-0.008877172563184092
15944.0,-0.021823244368149027
15952.0,-0.03810679041142772
15960.0,-0.05262256013284066
15968.0,-0.057291796843065436
15976.0,-0.05102266072432808
15984.0,-0.04618333250421627
15992.0,-0.048389117367163635
16000.0,-0.04790625371809041
16008.0,-0.04234078711982235
16016.0,-0.03996045734640023
16024.0,-0.041483473830395995
16032.0,-0.04097106229992036
16040.0,-0.04081175805006753
16048.0,-0.04007483093792818
16056.0,-0.03940727324347504
16064.0,-0.03604651455395749
16072.0,-0.03103973698977602
16080.0,-0.030488356120560688
16088.0,-0.033782116070672885
16096.0,-0.035115163467763874
16104.0,-0.03597074402685535
16112.0,-0.039353445606495625
16120.0,-0.04553921990307597
16128.0,-0.048430542120973696
16136.0,-0.04402496292758515
16144.0,-0.04170787208822589
16152.0,-0.04435026895244283
16160.0,-0.04712641514405171
16168.0,-0.047512412853490615
16176.0,-0.04304412552505205
16184.0,-0.03664596130540795
16192.0,-0.03494494902177267
16200.0,-0.03531916678084845
16208.0,-0.037852434414668
16216.0,-0.040707737617245936
16224.0,-0.04173909720579897
16232.0,-0.04362831770931286
16240.0,-0.04503670560711453
16248.0,-0.047731688226682736
16256.0,-0.05058042560694844
16264.0,-0.050311295254008924
16272.0,-0.049235399319984385
16280.0,-0.04761718743336358
16288.0,-0.044429019995505505
16296.0,-0.04043111718956047
16304.0,-0.04098723948191965
16312.0,-0.04604368714503277
16320.0,-0.051017306195066295
16328.0,-0.04627045885776164
16336.0,-0.03838364705923176
16344.0,-0.04021198347901285
16352.0,-0.04771630973062016
16360.0,-0.04750276378733066
16368.0,-0.04115709493467026
16376.0,-0.037103049723429225
16384.0,-0.03683971873196752
16392.0,-0.04118313810238098
16400.0,-0.051568878132978634
16408.0,-0.05773097651500717
16416.0,-0.05385288029451411
16424.0,-0.04763350786193816
16432.0,-0.0449507603712647
16440.0,-0.04631938850251445
16448.0,-0.04987515252957777
16456.0,-0.05379506911236512
16464.0,-0.05233761583798785
16472.0,-0.051630536186541905
16480.0,-0.052233466520700225
16488.0,-0.05426403997616777
16496.0,-0.05308145325706079
16504.0,-0.052145591266665216
16512.0,-0.05541859601593016
16520.0,-0.06087157909054983
16528.0,-0.062395757892296386
16536.0,-0.06352721078439237
16544.0,-0.06697243383138787
16552.0,-0.06770610470752757
16560.0,-0.06457476820464383
16568.0,-0.061202399591935755
16576.0,-0.06119166068791435
16584.0,-0.05995718554683819
16592.0,-0.055550523548064924
16600.0,-0.05213000357027597
16608.0,-0.053098741873563
16616.0,-0.05546886353635207
16624.0,-0.05384422032189864
16632.0,-0.05521990068952081
16640.0,-0.07636169045341863
16648.0,-0.11530544335411463
16656.0,-0.10994165496996644
16664.0,0.11037849524394241
16672.0,0.6792888643738476
16680.0,1.2736010275673941
16688.0,1.445941928398712
16696.0,1.1327377495928752
16704.0,0.5148464481681791
16712.0,0.05546356937605755
16720.0,-0.08456177193259565
16728.0,-0.07525219534526842
16736.0,-0.049947383903842964
16744.0,-0.04085108094414322
16752.0,-0.03534425052682522
16760.0,-0.02873393858680706
16768.0,-0.026513634081504922
16776.0,-0.03012960172272915
16784.0,-0.0368039750194037
16792.0,-0.045640903472259645
16800.0,-0.050605756587329576
16808.0,-0.0501004704834772
16816.0,-0.04948183407270269
16824.0,-0.05127220421813961
16832.0,-0.04485866098577319
16840.0,-0.0382538664625869
16848.0,-0.039770436627449994
16856.0,-0.0449304465829631
16864.0,-0.04685558784763444
16872.0,-0.044753196425147614
16880.0,-0.04539838671254698
16888.0,-0.0488358096692814
16896.0,-0.050209074159077896
16904.0,-0.04841230422472104
16912.0,-0.041681520191480095
16920.0,-0.01755825602083413
16928.0,0.017684117573677514
16936.0,0.040780848412677206
16944.0,0.051758915268031086
16952.0,0.03597425939985444
16960.0,0.008245633880442646
16968.0,-0.013364250175956828
16976.0,-0.013111620100584379
16984.0,-0.01716681087466349
16992.0,-0.027328599212298896
17000.0,-0.032070259871343765
17008.0,-0.032683047331014556
17016.0,-0.03222047236379484
17024.0,-0.03199715702648212
17032.0,-0.031988307838067054
17040.0,-0.03137543933550656
17048.0,-0.029877354989175223
17056.0,-0.032221087570462395
17064.0,-0.03873182408653889
17072.0,-0.044330631525940176
17080.0,-0.045990779267202866
17088.0,-0.04805443496059353
17096.0,-0.04844746785100137
17104.0,-0.04389043789177414
17112.0,-0.03841315501595983
17120.0,-0.035785613063754926
17128.0,-0.04076369979860149
17136.0,-0.04604695565537331
17144.0,-0.04525689429062109
17152.0,-0.04236439682391156
17160.0,-0.043878911445114764
17168.0,-0.041670864084476046
17176.0,-0.035502924281200283
17184.0,-0.034737289693341236
17192.0,-0.04106882678851771
17200.0,-0.046856951525964585
17208.0,-0.043772263478807284
17216.0,-0.03954684289189808
17224.0,-0.039402138391797736
17232.0,-0.037198581258619
17240.0,-0.034265894878219245
17248.0,-0.03203135098072023
17256.0,-0.03213319747557248
17264.0,-0.035147805520991456
17272.0,-0.03615737500304876
17280.0,-0.041505867412393836
17288.0,-0.04691371006805082
17296.0,-0.04530524492042999
17304.0,-0.04152860783459651
17312.0,-0.03946493019979765
17320.0,-0.04110773816365632
17328.0,-0.04611614624471842
17336.0,-0.050888185645609554
17344.0,-0.05630822174174748
17352.0,-0.055227769575604824
17360.0,-0.04938354489157622
17368.0,-0.04633216718859775
17376.0,-0.04707512874391499
17384.0,-0.047239399674204464
17392.0,-0.04562665265146636
17400.0,-0.04874864226472907
17408.0,-0.05257064106380992
17416.0,-0.04991186574052074
17424.0,-0.04637548720799884
17432.0,-0.045799408592461774
17440.0,-0.04520429984878223
17448.0,-0.04628670688474048
17456.0,-0.04926244374390387
17464.0,-0.050422009396450536
17472.0,-0.05137466130276429
17480.0,-0.053668390425922884
17488.0,-0.051415389886118476
17496.0,-0.052050215353853416
17504.0,-0.056900311834777735
17512.0,-0.06527743608574403
17520.0,-0.06988554229099393
17528.0,-0.07141258148333213
17536.0,-0.07147759786213079
17544.0,-0.06940738942614248
17552.0,-0.06693636341537004
17560.0,-0.059392412254165874
17568.0,-0.05280492516648004
17576.0,-0.048355585526028505
17584.0,-0.04661596987958129
17592.0,-0.049367616280804404
17600.0,-0.052996763294332484
17608.0,-0.05524770888019637
17616.0,-0.05509735494024007
17624.0,-0.05226007710874293
17632.0,-0.055185486707573554
17640.0,-0.07879908711991711
17648.0,-0.10879357851995261
17656.0,-0.04823100660137476
17664.0,0.2823475098019555
17672.0,0.9010675173549508
17680.0,1.375012428809574
17688.0,1.4301068793669256
17696.0,1.0624027651086791
17704.0,0.4404092758076941
17712.0,0.017422419653558133
17720.0,-0.09658887711595437
17728.0,-0.08165973377976575
17736.0,-0.0577948249023723
17744.0,-0.04705332164535431
17752.0,-0.045668797918326606
17760.0,-0.04488403067759634
17768.0,-0.040983785436309816
17776.0,-0.04415062406367894
17784.0,-0.05370976006573916
17792.0,-0.05745774900007123
17800.0,-0.051090775174828504
17808.0,-0.045324045369237446
17816.0,-0.043539589207747205
17824.0,-0.04643711130723894
17832.0,-0.04976690738243848
17840.0,-0.04796236892275794
17848.0,-0.04630344694563547
17856.0,-0.049392274477312315
17864.0,-0.054487027185721904
17872.0,-0.05993314149617069
17880.0,-0.0608639924988271
17888.0,-0.05667355513053453
17896.0,-0.05333153811609716
17904.0,-0.046166499281179975
17912.0,-0.026558983925057934
17920.0,-0.004503486300742467
17928.0,0.006364073287579249
17936.0,0.002964615512813244
17944.0,-0.002707897037462074
17952.0,-0.018237816045939444
17960.0,-0.03610955277752215
17968.0,-0.04827299283682187
17976.0,-0.051212699717295924
17984.0,-0.04465146017150361
17992.0,-0.03517885620664936
18000.0,-0.031920446212070096
18008.0,-0.03371725231478786
18016.0,-0.03241629264798555
18024.0,-0.03017987494686866
18032.0,-0.0301102950338066
18040.0,-0.03189961820656657
18048.0,-0.03427209167021256
18056.0,-0.034918040980725325
18064.0,-0.03215495294265232
18072.0,-0.03336782930715779
18080.0,-0.03440321200935023
18088.0,-0.03317127128897995
18096.0,-0.03110375377475721
18104.0,-0.033149248061945
18112.0,-0.03364436205444594
18120.0,-0.033382210089674375
18128.0,-0.03559336941298878
18136.0,-0.0386658132473379
18144.0,-0.038871812149815436
18152.0,-0.03383464260166096
18160.0,-0.03033734498242185
18168.0,-0.030127528146373914
18176.0,-0.02977218081910996
18184.0,-0.03330944760560071
18192.0,-0.03947019112995521
18200.0,-0.04160148394695044
18208.0,-0.04285071831610004
18216.0,-0.04496558393203863
18224.0,-0.0418574351913339
18232.0,-0.03645466162340546
18240.0,-0.03305029322607014
18248.0,-0.036088868630830134
18256.0,-0.040582724178225
18264.0,-0.04223534125821971
18272.0,-0.03998024778766471
18280.0,-0.03529991304317402
18288.0,-0.031988225003572984
18296.0,-0.035249300984592974
18304.0,-0.03822562085601091
18312.0,-0.03965052751943655
18320.0,-0.039178544159412895
18328.0,-0.0353704565541412
18336.0,-0.03167494369741637
18344.0,-0.030910426024612688
18352.0,-0.03602597085097807
18360.0,-0.04091638383731791
18368.0,-0.03855703739357277
18376.0,-0.03474521129223692
18384.0,-0.034506401207750156
18392.0,-0.03528467163948572
18400.0,-0.031536526046099425
18408.0,-0.028287502257535558
18416.0,-0.02763606054468498
18424.0,-0.029051549339493443
18432.0,-0.030559424367667648
18440.0,-0.0329325716929637
18448.0,-0.03622575010473953
18456.0,-0.03607114525071081
18464.0,-0.033435218171867814
18472.0,-0.031132582982278445
18480.0,-0.03184481930136574
18488.0,-0.03257711421510913
18496.0,-0.03293039731885133
18504.0,-0.0368308639889435
18512.0,-0.0431163546175768
18520.0,-0.045451844168316526
18528.0,-0.04204025671276332
18536.0,-0.03670707962857014
18544.0,-0.0355872911390942
18552.0,-0.0380549342930499
18560.0,-0.0360796366006657
18568.0,-0.03156783383327711
18576.0,-0.035176970286007504
18584.0,-0.03941397441457713
18592.0,-0.03959461800321601
18600.0,-0.04072058588238165
18608.0,-0.045176276228125256
18616.0,-0.04595737066763726
18624.0,-0.03958850386212228
18632.0,-0.03556501600385039
18640.0,-0.03588988271580497
18648.0,-0.04083123887390721
18656.0,-0.04519856574538073
18664.0,-0.043862344411470314
18672.0,-0.044090293018628435
18680.0,-0.046127654235987324
18688.0,-0.04468172963811192
18696.0,-0.042753898382241064
18704.0,-0.0473404902248967
18712.0,-0.06517281124473895
18720.0,-0.09803276368585197
18728.0,-0.09256472752363272
18736.0,0.10240947656935225
18744.0,0.6350289190200845
18752.0,1.219644619519039
18760.0,1.3429872812230872
18768.0,0.9136928244742079
18776.0,0.29394869447230193
18784.0,-0.02815006671915407
18792.0,-0.08483983516994942
18800.0,-0.058497840570064005
18808.0,-0.037067929993886174
18816.0,-0.03205918697845116
18824.0,-0.031978035406699294
18832.0,-0.03247269644809799
18840.0,-0.03248527191683544
18848.0,-0.032042624568276494
18856.0,-0.03186401497594423
18864.0,-0.033757762623165086
18872.0,-0.0396513584171868
18880.0,-0.04560233049129367
18888.0,-0.04333344252861986
18896.0,-0.03661375184009997
18904.0,-0.034928587679766795
18912.0,-0.039016576673907975
18920.0,-0.0444098440264962
18928.0,-0.045860849637054994
18936.0,-0.04510324709000171
18944.0,-0.045077583355449403
18952.0,-0.04649077645345065
18960.0,-0.048741652296832694
18968.0,-0.04798704582766233
18976.0,-0.03914721105056423
18984.0,-0.028442144722390112
18992.0,-0.019375082585854533
19000.0,-0.0055662359910097214
19008.0,0.022478146310877696
19016.0,0.014974820351473999
19024.0,-0.008961824242697033
19032.0,-0.02287030728042619
19040.0,-0.0381896416319848
19048.0,-0.04978685261551492
19056.0,-0.05103111745200442
19064.0,-0.04430366867727194
19072.0,-0.03936462226964385
19080.0,-0.03932027003579632
19088.0,-0.039277443623032475
19096.0,-0.03539395271401278
19104.0,-0.02774569318258088
19112.0,-0.02295158015217597
19120.0,-0.020870658051228275
19128.0,-0.019749444453763983
19136.0,-0.017851568987063464
19144.0,-0.016499268963709596
19152.0,-0.01894029320850151
19160.0,-0.022688656351133082
19168.0,-0.024542451143387958
19176.0,-0.02779935332447286
19184.0,-0.03330825807147601
19192.0,-0.040687167376608505
19200.0,-0.042442434216472
19208.0,-0.03459891043790806
19216.0,-0.02903770732437438
19224.0,-0.028742212185333054
19232.0,-0.029610993569133937
19240.0,-0.030458989898784584
19248.0,-0.034499704628528007
19256.0,-0.039348641907213794
19264.0,-0.036821723824433626
19272.0,-0.03287449897527517
19280.0,-0.030051430846638593
19288.0,-0.03283082060343202
19296.0,-0.03771807024371295
19304.0,-0.03904076499679107
19312.0,-0.03616094415317938
19320.0,-0.03246724081511702
19328.0,-0.036502982647169335
19336.0,-0.047827664823222295
19344.0,-0.05245111076363987
19352.0,-0.044329953358446215
19360.0,-0.03758557751576481
19368.0,-0.03515406094585614
19376.0,-0.031236408786636534
19384.0,-0.027889901260133697
19392.0,-0.03018679570193742
19400.0,-0.03579660693666397
19408.0,-0.039143743832822375
19416.0,-0.041311703433544476
19424.0,-0.042735761729464555
19432.0,-0.04173094701653001
19440.0,-0.038349861543334376
19448.0,-0.03537145887029749
19456.0,-0.03353645905915924
19464.0,-0.034055846806355504
19472.0,-0.03481445858093716
19480.0,-0.03541574201993125
19488.0,-0.034005277779462786
19496.0,-0.03376419332722477
19504.0,-0.03492557971820823
19512.0,-0.033015496300719316
19520.0,-0.030407854417745458
19528.0,-0.0371216307669742
19536.0,-0.046860452289986546
19544.0,-0.05002969189214994
19552.0,-0.05080796691855318
19560.0,-0.05018445151186479
19568.0,-0.04858073718163965
19576.0,-0.051800484042319545
19584.0,-0.05603533227321442
19592.0,-0.05852485576225117
19600.0,-0.0594805544675361
19608.0,-0.057155854653310384
19616.0,-0.05341047393035571
19624.0,-0.05007326458420376
19632.0,-0.048147569581451465
19640.0,-0.04412056086858276
19648.0,-0.03853141956023329
19656.0,-0.04062292920283715
19664.0,-0.05004827675569433
19672.0,-0.05473392448936815
19680.0,-0.04953136351037679
19688.0,-0.04169752050843291
19696.0,-0.044728157698927504
19704.0,-0.07065782272257773
19712.0,-0.10035459971845546
19720.0,-0.02901610106140712
19728.0,0.3294553127342958
19736.0,0.948560798230644
19744.0,1.322636177573893
19752.0,1.143098051108066
19760.0,0.5505055869892324
19768.0,0.07391615072261726
19776.0,-0.08170802347743264
19784.0,-0.08042548874966482
19792.0,-0.05447735959725686
19800.0,-0.043912197946883044
19808.0,-0.04420126285505358
19816.0,-0.04817168557402098
19824.0,-0.051702609279438386
19832.0,-0.0522641416108481
19840.0,-0.05164400326476343
19848.0,-0.05006140558473328
19856.0,-0.045643352410236177
19864.0,-0.04518668303924075
19872.0,-0.044159970694591565
19880.0,-0.039692764109936204
19888.0,-0.04062868957654911
19896.0,-0.046415850356289194
19904.0,-0.05100264448099973
19912.0,-0.0479126599834262
19920.0,-0.04515406391191662
19928.0,-0.04998385643904697
19936.0,-0.051225785428278964
19944.0,-0.043267974825805175
19952.0,-0.027100905606173925
19960.0,-0.0014603283315711491
19968.0,0.016155785654268395
19976.0,0.022383239001226844
19984.0,0.03793294670051813
19992.0,0.04247243561661865
20000.0,0.028416868377288938
20008.0,0.010852828811944227
20016.0,-0.015560785945023614
20024.0,-0.04533049811136752
20032.0,-0.05088525049169672
20040.0,-0.048668900778547866
20048.0,-0.050411559878267544
20056.0,-0.049651142698832494
20064.0,-0.0413461827194791
20072.0,-0.03218726261035907
20080.0,-0.02972931533913998
20088.0,-0.03099308447066755
20096.0,-0.03180199943018201
20104.0,-0.029422119868431892
20112.0,-0.02594366067832117
20120.0,-0.0256516099433159
20128.0,-0.02312922993309326
20136.0,-0.02084004983185774
20144.0,-0.025101555625619158
20152.0,-0.03283987773867938
20160.0,-0.035332111525402304
20168.0,-0.039895998625806894
20176.0,-0.04660854059915095
20184.0,-0.043583770502788194
20192.0,-0.03663368428217969
20200.0,-0.03658771371520667
20208.0,-0.03929488263281307
20216.0,-0.0370740617834916
20224.0,-0.03417815295291283
20232.0,-0.03349199055298577
20240.0,-0.034129654846281075
20248.0,-0.03957456469400274
20256.0,-0.046561833700173395
20264.0,-0.04792700496018124
20272.0,-0.04086770658118949
20280.0,-0.029957196399559707
20288.0,-0.030053655987431465
20296.0,-0.039690119127622096
20304.0,-0.04888201134944601
20312.0,-0.04946364042608744
20320.0,-0.0496499060532136
20328.0,-0.052447569966570025
20336.0,-0.05284085295767989
20344.0,-0.05058815485593997
20352.0,-0.04215717019811476
20360.0,-0.03171472033549556
20368.0,-0.02928595802518026
20376.0,-0.032191879727078106
20384.0,-0.03367514877009166
20392.0,-0.036310456777557454
20400.0,-0.04313548520344605
20408.0,-0.04833543361792512
20416.0,-0.04531715645274156
20424.0,-0.04116371788905155
20432.0,-0.04082682406169025
20440.0,-0.04379825830705391
20448.0,-0.047267617556797696
20456.0,-0.04741763650101167
20464.0,-0.0450310428444142
20472.0,-0.04286755509457853
20480.0,-0.04506668585598642
20488.0,-0.04884826810991854
20496.0,-0.05082032898602799
20504.0,-0.05082054676379702
20512.0,-0.04977033120436647
20520.0,-0.05021363409666475
20528.0,-0.05054150762651913
20536.0,-0.04620026177246152
20544.0,-0.04117879778728168
20552.0,-0.03934458706541399
20560.0,-0.042545157243438825
20568.0,-0.04783822880287379
20576.0,-0.04793298394411796
20584.0,-0.04454001436382239
20592.0,-0.04480272681443161
20600.0,-0.047973794169037055
20608.0,-0.04981580992139996
20616.0,-0.04810587952288278
20624.0,-0.04676441917922352
20632.0,-0.05899123025662582
20640.0,-0.08542302708894202
20648.0,-0.08700983223351481
20656.0,0.06734663897605224
20664.0,0.540667971044395
20672.0,1.1431956429249421
20680.0,1.372461528722242
20688.0,1.0718058897498912
20696.0,0.4508854122958034
20704.0,0.0217616493469244
20712.0,-0.0970513687860367
20720.0,-0.08309774009403614
20728.0,-0.053088562910410635
20736.0,-0.038230354081953466
20744.0,-0.035688045900184685
20752.0,-0.03740984908173788
20760.0,-0.04077284090921676
20768.0,-0.0456263273770955
20776.0,-0.05185854896652806
20784.0,-0.05316458589909831
20792.0,-0.0454111883817217
20800.0,-0.04152538224867711
20808.0,-0.04514310956326268
20816.0,-0.052066452041301496
20824.0,-0.05536481814315909
20832.0,-0.053249196494153994
20840.0,-0.05157462293503821
20848.0,-0.05072718917701618
20856.0,-0.04536700498815141
20864.0,-0.040436820597045176
20872.0,-0.040496422144081314
20880.0,-0.04182880360737826
20888.0,-0.04304761924584489
20896.0,-0.049088363711840236
20904.0,-0.052253246307135404
20912.0,-0.04338445644964976
20920.0,-0.016068850193014496
20928.0,0.014169655282678842
20936.0,0.010218693723924026
20944.0,-0.005803121017946323
20952.0,-0.01975818070801251
20960.0,-0.03210226798677987
20968.0,-0.03816117589868876
20976.0,-0.04244405707188112
20984.0,-0.04628157811400127
20992.0,-0.04902612702690069
21000.0,-0.04624884381097363
21008.0,-0.042087117336312034
21016.0,-0.03952827294222741
21024.0,-0.03987674569527717
21032.0,-0.03983509136972111
21040.0,-0.03789692855613704
21048.0,-0.03728039429740542
21056.0,-0.032166919383708685
21064.0,-0.028137384814022816
21072.0,-0.029992052509455393
21080.0,-0.032776466746869834
21088.0,-0.035755596942434985
21096.0,-0.038944497510025905
21104.0,-0.04169701482973535
21112.0,-0.04256239421702454
21120.0,-0.042985773708217295
21128.0,-0.04483744545403827
21136.0,-0.044965122982028656
21144.0,-0.03980308219730137
21152.0,-0.03693423491197958
21160.0,-0.03999681675899538
21168.0,-0.043588385699383114
21176.0,-0.04710404592619788
21184.0,-0.051338461444536014
21192.0,-0.049796865564535206
21200.0,-0.044023049215337895
21208.0,-0.03814969528367134
21216.0,-0.03407010964169025
21224.0,-0.03363819500673589
21232.0,-0.0380514526761915
21240.0,-0.04636632406696856
21248.0,-0.05251077658306956
21256.0,-0.055401799835953815
21264.0,-0.054283953334012224
21272.0,-0.05402624917748746
21280.0,-0.054633319417265534
21288.0,-0.054349767645311825
21296.0,-0.0509850340559408
21304.0,-0.04457814639438367
21312.0,-0.04040870641761554
21320.0,-0.04354460508751012
21328.0,-0.05084154898501621
21336.0,-0.04819657752149805
21344.0,-0.03920722659119439
21352.0,-0.036683494157763084
21360.0,-0.04156141209393109
21368.0,-0.049392953477152855
21376.0,-0.0549237661438152
21384.0,-0.05656529525007274
21392.0,-0.05907227745660549
21400.0,-0.058821283952672075
21408.0,-0.056111836181223645
21416.0,-0.05444543533803826
21424.0,-0.05127395108578928
21432.0,-0.04890486544097389
21440.0,-0.05293990206166023
21448.0,-0.05639107506543622
21456.0,-0.05579875792740212
21464.0,-0.054647510111289155
21472.0,-0.051877907833090604
21480.0,-0.04703982297004641
21488.0,-0.04938283080638995
21496.0,-0.05317542768561199
21504.0,-0.05298280445120452
21512.0,-0.05542892847635382
21520.0,-0.05825858176520632
21528.0,-0.05351389802306029
21536.0,-0.050737828492373856
21544.0,-0.05544088251042387
21552.0,-0.06477646338202356
21560.0,-0.08553520125823506
21568.0,-0.09661053325855119
21576.0,0.01714171795335877
21584.0,0.432396977826198
21592.0,1.0454852708652493
21600.0,1.380276649234935
21608.0,1.2275580515033946
21616.0,0.6707721873538158
21624.0,0.13385504770974507
21632.0,-0.08081442183253484
21640.0,-0.09657676552234698
21648.0,-0.06952336186588536
21656.0,-0.057916811062287424
21664.0,-0.0592574127408126
21672.0,-0.059050782934423736
21680.0,-0.05536886656284823
21688.0,-0.04943592841903623
21696.0,-0.04618894095275955
21704.0,-0.05249129638546385
21712.0,-0.060494760921785296
21720.0,-0.06333155601821683
21728.0,-0.05984431797606987
21736.0,-0.05919109088805586
21744.0,-0.06071450565784369
21752.0,-0.05877884175545457
21760.0,-0.054961560338467816
21768.0,-0.0546828697225399
21776.0,-0.05525790512140719
21784.0,-0.05803354618794396
21792.0,-0.0636447534240581
21800.0,-0.06648048593310682
21808.0,-0.06562228194272278
21816.0,-0.05045319383238164
21824.0,-0.004554800883298933
21832.0,0.06073761097439057
21840.0,0.09489812963816403
21848.0,0.08489456330325294
21856.0,0.061194784643370484
21864.0,0.08325720669795382
21872.0,0.044874208205841634
21880.0,-0.024658835902987408
21888.0,-0.053294607537793005
21896.0,-0.06197098226635501
21904.0,-0.060733329316425104
21912.0,-0.052658747525419235
21920.0,-0.04426461128862362
21928.0,-0.04004631763811452
21936.0,-0.03721542776531047
21944.0,-0.03468043335136945
21952.0,-0.036266241766809
21960.0,-0.04099043297501539
21968.0,-0.04343137493043312
21976.0,-0.04614266545962784
21984.0,-0.04835599575915025
21992.0,-0.047371899441742506
22000.0,-0.043439153274823554
22008.0,-0.03669220234383159
22016.0,-0.035857173699637084
22024.0,-0.039048009107858356
22032.0,-0.041207231737739915
22040.0,-0.04358874439153892
22048.0,-0.04648024451627756
22056.0,-0.05004780536389283
22064.0,-0.05360197632765878
22072.0,-0.05497936192694658
22080.0,-0.054823880737206274
22088.0,-0.05169975942420764
22096.0,-0.05029501095277803
22104.0,-0.048247061288866154
22112.0,-0.046497986740641054
22120.0,-0.049643263373805376
22128.0,-0.05567966951376836
22136.0,-0.05775216268125879
22144.0,-0.05750111859500007
22152.0,-0.05386493245199705
22160.0,-0.05020523447524432
22168.0,-0.0485408621569775
22176.0,-0.049475842594310045
22184.0,-0.04805211240996984
22192.0,-0.04384501589829375
22200.0,-0.04279776344202396
22208.0,-0.04400442406309617
22216.0,-0.044320924670309694
22224.0,-0.04219440711105203
22232.0,-0.04248631494183463
22240.0,-0.04663131258647284
22248.0,-0.05103243003134034
22256.0,-0.054411866729995914
22264.0,-0.05745001515899157
22272.0,-0.05616916646846896
22280.0,-0.0511057761332111
22288.0,-0.04860916113038781
22296.0,-0.05090083537834671
22304.0,-0.05385548133625836
22312.0,-0.054870809501483965
22320.0,-0.059336953828138826
22328.0,-0.06451958779584373
22336.0,-0.06685889933220018
22344.0,-0.07015355640791744
22352.0,-0.07129385879905968
22360.0,-0.0716377656211988
22368.0,-0.0709207363108745
22376.0,-0.07069562363384174
22384.0,-0.06669939495534166
22392.0,-0.061427329996662665
22400.0,-0.057949719111848305
22408.0,-0.05508053463267625
22416.0,-0.05150298371256491
22424.0,-0.047241918710412154
22432.0,-0.04651929793971369
22440.0,-0.049065321084962484
22448.0,-0.05123682613324187
22456.0,-0.05241516356263303
22464.0,-0.06216721748879491
22472.0,-0.0898428676319993
22480.0,-0.11625133325295309
22488.0,-0.04898112137127636
22496.0,0.28568166414323526
22504.0,0.9050143025913867
22512.0,1.372662036403142
22520.0,1.4222184646386415
22528.0,1.0513351680695182
22536.0,0.43119486123296463
22544.0,0.012756321687970163
22552.0,-0.098289213614306
22560.0,-0.08231208763565459
22568.0,-0.06019754238464606
22576.0,-0.05556347338535989
22584.0,-0.052393960685131906
22592.0,-0.04846964545840264
22600.0,-0.05015088658845349
22608.0,-0.053933996979889216
22616.0,-0.052577734887014546
22624.0,-0.05080673791337612
22632.0,-0.048919136056250374
22640.0,-0.049758510791163765
22648.0,-0.057086961645039076
22656.0,-0.06475497505728106
22664.0,-0.06550696872364162
22672.0,-0.05896461318448911
22680.0,-0.052433581367460354
22688.0,-0.05181489157865063
22696.0,-0.05394644291228167
22704.0,-0.05756727983002047
22712.0,-0.061757254322259446
22720.0,-0.06015566626644394
22728.0,-0.05284905504973654
22736.0,-0.04784908383188496
22744.0,-0.045772742422141334
22752.0,-0.02898337163472058
22760.0,0.0026514864469360582
22768.0,0.010985375293450539
22776.0,-0.0018718541238703934
22784.0,-0.020908318990964087
22792.0,-0.045872938703870686
22800.0,-0.061307582738452215
22808.0,-0.06257468423833794
22816.0,-0.055290518052513754
22824.0,-0.045761881497268224
22832.0,-0.03994509080622629
22840.0,-0.038130222882936646
22848.0,-0.0356400672187039
22856.0,-0.03409877951122331
22864.0,-0.03565094139039089
22872.0,-0.03554996211252851
22880.0,-0.03492577203715812
22888.0,-0.03578280663868101
22896.0,-0.039157792397868665
22904.0,-0.04217638395402891
22912.0,-0.041071396007475634
22920.0,-0.04172262098766241
22928.0,-0.04663021515486854
22936.0,-0.050675455207585235
22944.0,-0.050143889993450194
22952.0,-0.04493911552923024
22960.0,-0.04173593144307266
22968.0,-0.04611175854579418
22976.0,-0.05649932084398731
22984.0,-0.05922382195951882
22992.0,-0.05471025442908368
23000.0,-0.048826756587027224
23008.0,-0.048552264327919654
23016.0,-0.05156726013814934
23024.0,-0.048292177693632095
23032.0,-0.042334741394202645
23040.0,-0.040813620317490765
23048.0,-0.04271308011668557
23056.0,-0.044794982146948686
23064.0,-0.04368825658274913
23072.0,-0.04303625123740262
23080.0,-0.042075648157506244
23088.0,-0.0435372376973536
23096.0,-0.050100004128797095
23104.0,-0.05781923564458281
23112.0,-0.05835602385657798
23120.0,-0.05148112713254391
23128.0,-0.047869462219533046
23136.0,-0.048597838019553974
23144.0,-0.05292581027299269
23152.0,-0.05727483360408714
23160.0,-0.056729040609494547
23168.0,-0.05051132398036507
23176.0,-0.045339786729699086
23184.0,-0.04335153770062599
23192.0,-0.040390152509690164
23200.0,-0.03928336831178726
23208.0,-0.041509025252347745
23216.0,-0.046741619835897245
23224.0,-0.051072689823374366
23232.0,-0.05510510258426888
23240.0,-0.06000993991631371
23248.0,-0.05880850904128868
23256.0,-0.05164701259694768
23264.0,-0.04666475997685864
23272.0,-0.04469636015738495
23280.0,-0.044381203310901216
23288.0,-0.04863763954889611
23296.0,-0.05590056047755318
23304.0,-0.05489145006578296
23312.0,-0.051192128572477444
23320.0,-0.05505687404922805
23328.0,-0.06157279904620676
23336.0,-0.06337232170739242
23344.0,-0.06006772416540219
23352.0,-0.05190778020803819
23360.0,-0.04480342343544967
23368.0,-0.04453362894017168
23376.0,-0.047261442435778754
23384.0,-0.0489748078668024
23392.0,-0.049445481367281136
23400.0,-0.052110787127827254
23408.0,-0.06405172788409566
23416.0,-0.09393961028192384
23424.0,-0.10840822571690585
23432.0,0.007810445071111355
23440.0,0.4294533309270797
23448.0,1.056569361569295
23456.0,1.4215612589634015
23464.0,1.3256610800862876
23472.0,0.8005610541862314
23480.0,0.20582203742115912
23488.0,-0.06257674506581415
23496.0,-0.09651172877700726
23504.0,-0.06997522357986248
23512.0,-0.05412006442116054
23520.0,-0.05428024549620251
23528.0,-0.05765806360822362
23536.0,-0.059696405184717936
23544.0,-0.05920142510739321
23552.0,-0.05925709908649651
23560.0,-0.06532925448746779
23568.0,-0.06940255530020542
23576.0,-0.06472178259127652
23584.0,-0.06289056925658743
23592.0,-0.06505863251985772
23600.0,-0.063746681055509
23608.0,-0.06454765682794143
23616.0,-0.06998720031558245
23624.0,-0.06985885053239374
23632.0,-0.06607741370546466
23640.0,-0.062116678870481196
23648.0,-0.061300250250914026
23656.0,-0.06510156272369941
23664.0,-0.0669295627601855
23672.0,-0.050426414709035285
23680.0,-0.002282951917876335
23688.0,0.06251697046818788
23696.0,0.060450850566297135
23704.0,0.006587278956528733
23712.0,0.0019550109652758246
23720.0,0.04066495736869484
23728.0,0.05029303975741458
23736.0,0.023569614045058272
23744.0,-0.01610478890445831
23752.0,-0.04337231858210101
23760.0,-0.05438186781306354
23768.0,-0.057772238582577504
23776.0,-0.05573938609241382
23784.0,-0.05322066708883779
23792.0,-0.05089821236553958
23800.0,-0.04557494821823327
23808.0,-0.03936177071598451
23816.0,-0.03482847250127015
23824.0,-0.03660232411772137
23832.0,-0.04375919050390783
23840.0,-0.04875573045615842
23848.0,-0.046968786902691836
23856.0,-0.044241161948011185
23864.0,-0.04330735654916712
23872.0,-0.04579156622153455
23880.0,-0.05103141516930604
23888.0,-0.05390835960330986
23896.0,-0.05309326322730522
23904.0,-0.04819399673009671
23912.0,-0.04524890452556754
23920.0,-0.04925805869712543
23928.0,-0.05926078397065261
23936.0,-0.06642131870991802
23944.0,-0.065817536957683
23952.0,-0.0610877322156982
23960.0,-0.055881740884119145
23968.0,-0.05614871042372125
23976.0,-0.06371533773189901
23984.0,-0.06593394195996323
23992.0,-0.05946130084218383
24000.0,-0.05434924499532939
24008.0,-0.053576824034756165
24016.0,-0.053161199453298405
24024.0,-0.055345847804436805
24032.0,-0.05703469371971532
24040.0,-0.05573366980889331
24048.0,-0.05857516822427648
24056.0,-0.06364453417048022
24064.0,-0.06230919333410507
24072.0,-0.06008774594144657
24080.0,-0.06202534464788324
24088.0,-0.06585128388158047
24096.0,-0.06643305597310857
24104.0,-0.06117253520841607
24112.0,-0.05722976233047393
24120.0,-0.05950443751943735
24128.0,-0.06529891730516
24136.0,-0.0672729139197686
24144.0,-0.0676444240598367
24152.0,-0.06694838486940273
24160.0,-0.06489301593122968
24168.0,-0.059972033244076635
24176.0,-0.05253919595751737
24184.0,-0.04919258966552673
24192.0,-0.05215572288362817
24200.0,-0.05544083560926272
24208.0,-0.05396604062926399
24216.0,-0.054461171870024784
24224.0,-0.059094518302274815
24232.0,-0.06546930178134
24240.0,-0.06533043456456475
24248.0,-0.06204509259602342
24256.0,-0.06021104390607242
24264.0,-0.0727186097724945
24272.0,-0.10635596457648516
24280.0,-0.1159141953723088
24288.0,0.046390808082157
24296.0,0.5518995519884611
24304.0,1.171608662982351
24312.0,1.4110179815515165
24320.0,1.1492220927657486
24328.0,0.53615448544767
24336.0,0.05019587467459638
24344.0,-0.10872175494352466
24352.0,-0.10543650747430408
24360.0,-0.07516248914237027
24368.0,-0.06045325247326542
24376.0,-0.058830624656186596
24384.0,-0.06106213564824941
24392.0,-0.06390348708911654
24400.0,-0.06542129240338061
24408.0,-0.06756954301948137
24416.0,-0.07266523001510024
24424.0,-0.07148496892126312
24432.0,-0.06486133576062195
24440.0,-0.06119429383709278
24448.0,-0.06149581734996544
24456.0,-0.061755233826025005
24464.0,-0.05967606159986733
24472.0,-0.05898308882370176
24480.0,-0.05901933966758956
24488.0,-0.06162190398509666
24496.0,-0.0653086956822433
24504.0,-0.07348908960747752
24512.0,-0.08203606931892085
24520.0,-0.07582971179710857
24528.0,-0.050827713919451824
24536.0,-0.01931013228388385
24544.0,0.03221871145009245
24552.0,0.15432806479757638
24560.0,0.24533864900418503
24568.0,0.21275642345236984
24576.0,0.1355060352143306
24584.0,0.07843907594619096
24592.0,0.01909562342508553
24600.0,-0.04059780808443437
24608.0,-0.07595025978681127
24616.0,-0.08288828295617848
24624.0,-0.07532212612221295
24632.0,-0.06691999486820668
24640.0,-0.06025280431064662
24648.0,-0.058276133551149335
24656.0,-0.05816293383113849
24664.0,-0.05684327162175594
24672.0,-0.055500561570315396
24680.0,-0.05354978800937172
24688.0,-0.051160648086610395
24696.0,-0.052795574403038864
24704.0,-0.05897660715374238
24712.0,-0.060356579852370015
24720.0,-0.05886168980067226
24728.0,-0.06045563501487
24736.0,-0.06417437110364775
24744.0,-0.06700118486611484
24752.0,-0.06444370916569855
24760.0,-0.062497007781302245
24768.0,-0.06345990786501866
24776.0,-0.0654156530170955
24784.0,-0.06646376847050989
24792.0,-0.06822290636142175
24800.0,-0.0706449557182943
24808.0,-0.0660285248208998
24816.0,-0.06116545164908261
24824.0,-0.05983122601886629
24832.0,-0.06271722708158775
24840.0,-0.06850487927406863
24848.0,-0.06958474635581055
24856.0,-0.06663773041215834
24864.0,-0.065622256957181
24872.0,-0.06381715252722364
24880.0,-0.06360982928626373
24888.0,-0.06952024784144642
24896.0,-0.07631518562113117
24904.0,-0.07408438994841307
24912.0,-0.0703243203227173
24920.0,-0.06882004952799789
24928.0,-0.06679978940218069
24936.0,-0.06595664029283752
24944.0,-0.06970108972640221
24952.0,-0.07933056838863566
24960.0,-0.08691024408852956
24968.0,-0.08926049472993798
24976.0,-0.09047376074719059
24984.0,-0.08559320781384422
24992.0,-0.0776062340186712
25000.0,-0.07067885332667011
25008.0,-0.06931966869851262
25016.0,-0.07226692424436457
25024.0,-0.07693720551366971
25032.0,-0.08112326090051099
25040.0,-0.08370980486314518
25048.0,-0.07903166322972023
25056.0,-0.07421056850972023
25064.0,-0.0760716833197729
25072.0,-0.07992612598141398
25080.0,-0.09020547107682216
25088.0,-0.11622082483590264
25096.0,-0.13861520637698402
25104.0,-0.05432178612858386
25112.0,0.31792124588274184
25120.0,0.9394792520220768
25128.0,1.3244416027909507
25136.0,1.2076943456133915
25144.0,0.6665844709516543
25152.0,0.12225437778553595
25160.0,-0.10398882398513545
25168.0,-0.12997095991233404
25176.0,-0.10662540725857036
25184.0,-0.09088454398839145
25192.0,-0.08974475330387824
25200.0,-0.0883655284111079
25208.0,-0.08824589227180873
25216.0,-0.08839509207995534
25224.0,-0.0866167280461079
25232.0,-0.0846347480082073
25240.0,-0.08617614155795171
25248.0,-0.09169117947900732
25256.0,-0.09552991420456061
25264.0,-0.09195290732263649
25272.0,-0.09230527099188632
25280.0,-0.09547647792706154
25288.0,-0.09420598057516709
25296.0,-0.09260357001612222
25304.0,-0.09419752147336308
25312.0,-0.09038440636985617
25320.0,-0.08749842011021115
25328.0,-0.08467621691363834
25336.0,-0.030549236886402854
25344.0,0.11018493250953468
25352.0,0.2906159288685976
25360.0,0.42293894966931855
25368.0,0.43393624307502654
25376.0,0.39261772148053864
25384.0,0.36316200846505037
25392.0,0.33374912894806474
25400.0,0.21473035848495595
25408.0,0.023406580802286525
25416.0,-0.08943205138790773
25424.0,-0.10750773920132349
25432.0,-0.09493545296652796
25440.0,-0.08651672459449442
25448.0,-0.08929226712642578
25456.0,-0.09220793578913442
25464.0,-0.0865466278255285
25472.0,-0.07826777216099698
25480.0,-0.07474001838705034
25488.0,-0.07754694124649
25496.0,-0.08345806500893123
25504.0,-0.0847317607833114
25512.0,-0.08197049956794855
25520.0,-0.08248092782331122
25528.0,-0.08474176219156745
25536.0,-0.08710006862329962
25544.0,-0.0863037619236023
25552.0,-0.08158804493759923
25560.0,-0.07762257960107138
25568.0,-0.07903520408791809
25576.0,-0.08199646034103575
25584.0,-0.0863558055698233
25592.0,-0.08919878588991445
25600.0,-0.08856737412296714
25608.0,-0.08654121111926602
25616.0,-0.08955005502046381
25624.0,-0.09048065009747924
25632.0,-0.08625143615525299
25640.0,-0.08289814918643545
25648.0,-0.08446950568720395
25656.0,-0.09058964475011361
25664.0,-0.08911171753505022
25672.0,-0.08350573250608115
25680.0,-0.07850774710858051
25688.0,-0.07479084022742531
25696.0,-0.07515142469508251
25704.0,-0.08216392804863394
25712.0,-0.08923908217470526
25720.0,-0.09152298803258173
25728.0,-0.09258674178852615
25736.0,-0.09290028155827468
25744.0,-0.08969783419034595
25752.0,-0.0881608847138444
25760.0,-0.08903638952595115
25768.0,-0.08763323658797109
25776.0,-0.08311645622656608
25784.0,-0.07963051859163828
25792.0,-0.07596853760107189
25800.0,-0.07476515641251344
25808.0,-0.07802044010537838
25816.0,-0.080252724301701
25824.0,-0.08582922226977244
25832.0,-0.11050504298234033
25840.0,-0.13175946644734063
25848.0,-0.04741804636345493
25856.0,0.31948328934037135
25864.0,0.9343530068925576
25872.0,1.3665158768065921
25880.0,1.4230469089566617
25888.0,1.107449630166516
25896.0,0.5063324464432141
25904.0,0.035718817319358775
25912.0,-0.11624039472064285
25920.0,-0.11516346607402904
25928.0,-0.0975025848097553
25936.0,-0.09062247836358901
25944.0,-0.08453183587626965
25952.0,-0.08170771372341327
25960.0,-0.08395030130189572
25968.0,-0.08189765719585165
25976.0,-0.07878113148960014
25984.0,-0.08166181808323969
25992.0,-0.08673842759001844
26000.0,-0.08711557630781934
26008.0,-0.08083265449839994
26016.0,-0.07603265896129319
26024.0,-0.07839063230224444
26032.0,-0.0791509329276844
26040.0,-0.07703051429389667
26048.0,-0.07931723838023301
26056.0,-0.08540715638957899
26064.0,-0.08963053998551335
26072.0,-0.09028402006454378
26080.0,-0.086215053845358
26088.0,-0.07744146104850474
26096.0,-0.06219028277291272
26104.0,-0.0358972076651503
26112.0,0.0001224898354369459
26120.0,0.0034093015291176776
26128.0,-0.023374833961747696
26136.0,-0.054954896907556554
26144.0,-0.07367346700563679
26152.0,-0.08166357994264711
26160.0,-0.08203518163522033
26168.0,-0.07565643864676103
26176.0,-0.06611564582533401
26184.0,-0.05876027494011555
26192.0,-0.05592578353880201
26200.0,-0.05800505640197144
26208.0,-0.0622627239069193
26216.0,-0.06043458291983192
26224.0,-0.056724751670077254
26232.0,-0.056415220140189244
26240.0,-0.05808785444970308
26248.0,-0.05900156926202972
26256.0,-0.0626208635041264
26264.0,-0.06478504333172229
26272.0,-0.06285337868987281
26280.0,-0.06124520481922498
26288.0,-0.06319628552556787
26296.0,-0.06707633161839825
26304.0,-0.06599572769709659
26312.0,-0.062189590277908914
26320.0,-0.06347180609918816
26328.0,-0.06544417836185308
26336.0,-0.06452967344282472
26344.0,-0.06219072662400698
26352.0,-0.05947296505957528
26360.0,-0.059326080580100686
26368.0,-0.06241010442218231
26376.0,-0.06599990749638657
26384.0,-0.07102778653019914
26392.0,-0.0720588006511368
26400.0,-0.06332897930425403
26408.0,-0.0571435297961958
26416.0,-0.05626774766920374
26424.0,-0.057704835391588105
26432.0,-0.058384541988271026
26440.0,-0.05751767353290484
26448.0,-0.061221766757860126
26456.0,-0.06694652736330307
26464.0,-0.07119985093172912
26472.0,-0.07153937288766558
26480.0,-0.06591030171824579
26488.0,-0.06140666480765991
26496.0,-0.05889021185179143
26504.0,-0.05478944708759961
26512.0,-0.0518971442185255
26520.0,-0.050240703932980225
26528.0,-0.05071443354019935
26536.0,-0.054986050388158306
26544.0,-0.056516383854032265
26552.0,-0.056243279943057195
26560.0,-0.0644841046494815
26568.0,-0.08307756884646825
26576.0,-0.11235952802170585
26584.0,-0.09476990187108729
26592.0,0.1343983914497565
26600.0,0.694536423464009
26608.0,1.2630661328283508
26616.0,1.445051042440425
26624.0,1.181455023874695
26632.0,0.5833022316519625
26640.0,0.08233274919414789
26648.0,-0.09445640276702234
26656.0,-0.09556482416895734
26664.0,-0.06512747701211503
26672.0,-0.05176521393483443
26680.0,-0.05493149084242517
26688.0,-0.06306012857118891
26696.0,-0.06842030406480763
26704.0,-0.06818831206623599
26712.0,-0.06249699775346617
26720.0,-0.054684835971758994
26728.0,-0.05074278226455232
26736.0,-0.0533625217056045
26744.0,-0.06113909229805662
26752.0,-0.06347739226958861
26760.0,-0.06315272548064675
26768.0,-0.06557540521246007
26776.0,-0.06348853685937851
26784.0,-0.0629267842351712
26792.0,-0.06276278550679047
26800.0,-0.061348756544870355
26808.0,-0.06286005062630978
26816.0,-0.06344098189572196
26824.0,-0.058079522055269915
26832.0,-0.053931557153733586
26840.0,-0.05236780134658867
26848.0,-0.04920666170623036
26856.0,-0.04161069975644634
26864.0,-0.022506533415243956
26872.0,-0.01620327491911644
26880.0,-0.034155385231296465
26888.0,-0.0542311492146564
26896.0,-0.0622201540370238
26904.0,-0.054903722138052204
26912.0,-0.048658187123739816
26920.0,-0.049607486045457984
26928.0,-0.0525122577665912
26936.0,-0.05039080611488454
26944.0,-0.044501681335197656
26952.0,-0.041980927507095554
26960.0,-0.043111129218551245
26968.0,-0.04414918028413115
26976.0,-0.04522021000775671
26984.0,-0.04864268670904135
26992.0,-0.0541052598858742
27000.0,-0.05166167981477013
27008.0,-0.048376077763472046
27016.0,-0.0527165014305235
27024.0,-0.059250364645647244
27032.0,-0.06145227069595133
27040.0,-0.05935308020753502
27048.0,-0.05385887784335532
27056.0,-0.04643901006272072
27064.0,-0.042848214215257995
27072.0,-0.04216631030648693
27080.0,-0.04176535361450693
27088.0,-0.04256382371724799
27096.0,-0.04855229932110234
27104.0,-0.05636767194392766
27112.0,-0.05978951697091554
27120.0,-0.05759460461164841
27128.0,-0.05495235124110935
27136.0,-0.05250440224395911
27144.0,-0.04957593350489619
27152.0,-0.04742707597406183
27160.0,-0.045449798592568945
27168.0,-0.04621787151787958
27176.0,-0.048581765674106825
27184.0,-0.052923750118856625
27192.0,-0.055737925991220814
27200.0,-0.05600238228136986
27208.0,-0.05605527282400274
27216.0,-0.05500684022419887
27224.0,-0.05206222677474249
27232.0,-0.05227753235157451
27240.0,-0.05514486032690456
27248.0,-0.053332843485634336
27256.0,-0.04848577862525273
27264.0,-0.045304358954418096
27272.0,-0.047251527824214226
27280.0,-0.05584971672881439
27288.0,-0.05945871491032531
27296.0,-0.056858898765663725
27304.0,-0.05172778401486217
27312.0,-0.04877756215824808
27320.0,-0.04879776378449136
27328.0,-0.04700577679604046
27336.0,-0.04705810419191577
27344.0,-0.04521603333140076
27352.0,-0.046609382812738104
27360.0,-0.05522009865242759
27368.0,-0.059589537926174274
27376.0,-0.05564085035757065
27384.0,-0.04838443341377062
27392.0,-0.042929815335249186
27400.0,-0.04187594578404294
27408.0,-0.05236871908658154
27416.0,-0.07772894125262392
27424.0,-0.10616337915026071
27432.0,-0.071507376657528
27440.0,0.18052365506341772
27448.0,0.7504283133574357
27456.0,1.2959739151085223
27464.0,1.4191500135877855
27472.0,1.0556348514281193
27480.0,0.4180430730004475
27488.0,0.0047652734434139804
27496.0,-0.10021369550238238
27504.0,-0.08085451173763829
27512.0,-0.05300403139035382
27520.0,-0.03845826013499865
27528.0,-0.0328403812907756
27536.0,-0.03668358145979393
27544.0,-0.04535222543149902
27552.0,-0.05193919004453376
27560.0,-0.05764134088817151
27568.0,-0.05530991903526079
27576.0,-0.045429581582432474
27584.0,-0.04082551391194569
27592.0,-0.04377089370045034
27600.0,-0.046593835645343584
27608.0,-0.046742293728514565
27616.0,-0.04471312714542249
27624.0,-0.04065570495801061
27632.0,-0.03950457482338072
27640.0,-0.043664026156344835
27648.0,-0.04653813231825929
27656.0,-0.0434925710455413
27664.0,-0.03595755299201742
27672.0,-0.029592976753352138
27680.0,-0.03248575783566968
27688.0,-0.03364382766831929
27696.0,-0.027569560685696562
27704.0,-0.020460802694800304
27712.0,-0.013348720020237102
27720.0,-0.0032083533738530377
27728.0,0.007789617493667817
27736.0,0.027381957060974287
27744.0,0.005814250774418503
27752.0,-0.030860122738116058
27760.0,-0.04731938319027506
27768.0,-0.04836729025217833
27776.0,-0.043818817282587866
27784.0,-0.03357179730970847
27792.0,-0.02352596968445155
27800.0,-0.019479856744518735
27808.0,-0.023440460752738805
27816.0,-0.030028317294719924
27824.0,-0.03500285441652388
27832.0,-0.03346581119685794
27840.0,-0.026968778041007432
27848.0,-0.026210323868602236
27856.0,-0.02924230285076448
27864.0,-0.030773493395902924
27872.0,-0.02832522574962745
27880.0,-0.025033151460652808
27888.0,-0.025996057388699107
27896.0,-0.028353905355953658
27904.0,-0.031600691407425864
27912.0,-0.037432552429825156
27920.0,-0.03885678756679648
27928.0,-0.03720489714635791
27936.0,-0.034291356034959045
27944.0,-0.034873444287781115
27952.0,-0.039163053563581185
27960.0,-0.04097295733776185
27968.0,-0.03739528216107101
27976.0,-0.037239138639362665
27984.0,-0.03660357875991356
27992.0,-0.034587663246999106
28000.0,-0.0346460537020711
28008.0,-0.03397147212629445
28016.0,-0.03072015364115095
28024.0,-0.030049031477569585
28032.0,-0.03202180932288371
28040.0,-0.0318990052082592
28048.0,-0.03188976780960258
28056.0,-0.028467037408625752
28064.0,-0.028569876281723017
28072.0,-0.03323193542636725
28080.0,-0.0341964900478078
28088.0,-0.03274601365664035
28096.0,-0.03268470361832457
28104.0,-0.03641212693666932
28112.0,-0.04560096973643375
28120.0,-0.051159862191728245
28128.0,-0.047238937809210346
28136.0,-0.039877170840888765
28144.0,-0.03621556399427892
28152.0,-0.038800492098022776
28160.0,-0.04202353547509191
28168.0,-0.039392690206468337
28176.0,-0.037098770957933215
28184.0,-0.040193035242611835
28192.0,-0.04094827081720167
28200.0,-0.038399188971425476
28208.0,-0.036050202446427794
28216.0,-0.03118952678545548
28224.0,-0.03301001862339638
28232.0,-0.04393988689834749
28240.0,-0.0490474580816612
28248.0,-0.04619373028798955
28256.0,-0.042921251089407586
28264.0,-0.044061584390520235
28272.0,-0.04461192370900579
28280.0,-0.03865057188335633
28288.0,-0.03741282082266217
28296.0,-0.04017089960161914
28304.0,-0.03938326919513026
28312.0,-0.033552939122971685
28320.0,-0.03803586514579074
28328.0,-0.048656328316147635
28336.0,-0.051911958573385715
28344.0,-0.05114987355433837
28352.0,-0.05046634532502927
28360.0,-0.05236557275845215
28368.0,-0.05039218104700121
28376.0,-0.04398887391274458
28384.0,-0.04213328592585438
28392.0,-0.0475426342704868
28400.0,-0.05048843131893937
28408.0,-0.049093909443009474
28416.0,-0.04542552481894887
28424.0,-0.04224848883816415
28432.0,-0.04023568169138271
28440.0,-0.038615134907318535
28448.0,-0.03839578264900807
28456.0,-0.03970320398807933
28464.0,-0.04675918062664464
28472.0,-0.05652911189548793
28480.0,-0.060815175337779116
28488.0,-0.05299683787288153
28496.0,-0.038807327397109785
28504.0,-0.029392499146788667
28512.0,-0.03048189893474714
28520.0,-0.03805533825494266
28528.0,-0.05429958134439359
28536.0,-0.08177018300300383
28544.0,-0.10909953109961729
28552.0,-0.07128598270504688
28560.0,0.1940050140812774
28568.0,0.7741733870024909
28576.0,1.3143229757463744
28584.0,1.4617039950808028
28592.0,1.1691664014159548
28600.0,0.5469605353201918
28608.0,0.05699459024883565
28616.0,-0.0972372199812399
28624.0,-0.09015124872376672
28632.0,-0.062089298260802346
28640.0,-0.049493288381755346
28648.0,-0.050094342802601215
28656.0,-0.05177669005470952
28664.0,-0.04805992093581685
28672.0,-0.04740432745189263
28680.0,-0.05357766886381149
28688.0,-0.05768235291043935
28696.0,-0.0560784379172054
28704.0,-0.04762012867425219
28712.0,-0.03933431747105665
28720.0,-0.04457600765875622
28728.0,-0.05476989701595685
28736.0,-0.056870894862442005
28744.0,-0.055897844742621314
28752.0,-0.05682345046987899
28760.0,-0.053311204418353436
28768.0,-0.047765157058258206
28776.0,-0.04384840973025687
28784.0,-0.042659597909443174
28792.0,-0.04499876788103986
28800.0,-0.04745864516508096
28808.0,-0.04326667311655305
28816.0,-0.03582922540698923
28824.0,-0.03658580076356081
28832.0,-0.04329464116030284
28840.0,-0.037590302318748076
28848.0,-0.007612801131929569
28856.0,0.028481808044288508
28864.0,0.009957081956147956
28872.0,-0.04075338345341485
28880.0,-0.06591994995736147
28888.0,-0.06477498297554717
28896.0,-0.053373005133913444
28904.0,-0.046507085733052594
28912.0,-0.04314226014290252
28920.0,-0.038531756156448015
28928.0,-0.03732592095008413
28936.0,-0.039066624594005145
28944.0,-0.04111233824350787
28952.0,-0.042160503870030425
28960.0,-0.044903622032477324
28968.0,-0.0450926823681253
28976.0,-0.03830282862362779
28984.0,-0.03336157039389076
28992.0,-0.03512497627991568
29000.0,-0.043203915084444156
29008.0,-0.049382260753358664
29016.0,-0.04653915760983798
29024.0,-0.04188569810286835
29032.0,-0.04707488750915736
29040.0,-0.053536206651072345
29048.0,-0.05099008768634454
29056.0,-0.04232264223232342
29064.0,-0.03761953123798491
29072.0,-0.03673893014007189
29080.0,-0.04405616450869209
29088.0,-0.05939437763030674
29096.0,-0.06701948311538655
29104.0,-0.06046518283385518
29112.0,-0.04706857607402894
29120.0,-0.03808806951517682
29128.0,-0.0383009415459189
29136.0,-0.047280359281378866
29144.0,-0.05212597776964168
29152.0,-0.05527627551434435
29160.0,-0.05599960486161743
29168.0,-0.05772466365048544
29176.0,-0.06126923402912773
29184.0,-0.05687705669351113
29192.0,-0.04445612295865424
29200.0,-0.036777676133235154
29208.0,-0.03835179560754672
29216.0,-0.04651542134972982
29224.0,-0.057320757051243905
29232.0,-0.05877298473819282
29240.0,-0.05287174685863987
29248.0,-0.04915929423801879
29256.0,-0.04869737634255533
29264.0,-0.049220776618591214
29272.0,-0.051354045485180994
29280.0,-0.05374393564595392
29288.0,-0.05278113795031162
29296.0,-0.05508067737024676
29304.0,-0.05836536179877396
29312.0,-0.061347702062286534
29320.0,-0.06350847872760533
29328.0,-0.06566301484575573
29336.0,-0.06814446037937077
29344.0,-0.06336943059591187
29352.0,-0.06028620495596665
29360.0,-0.0602976303568865
29368.0,-0.05744047071041418
29376.0,-0.060329870414233315
29384.0,-0.0679573423157562
29392.0,-0.07086166749805993
29400.0,-0.06522810054048032
29408.0,-0.0572127655086294
29416.0,-0.05044904712728697
29424.0,-0.04953387382233403
29432.0,-0.05629364978535525
29440.0,-0.06242498962993178
29448.0,-0.06544746357838734
29456.0,-0.0727936463464953
29464.0,-0.09106156815496881
29472.0,-0.09397926002519752
29480.0,0.03532871880293453
29488.0,0.4729455804634409
29496.0,1.0837555095724527
29504.0,1.3794949288110283
29512.0,1.1853964570030078
29520.0,0.5983126653694578
29528.0,0.08574144158585496
29536.0,-0.0957486682219505
29544.0,-0.10089709505103649
29552.0,-0.07000002714241807
29560.0,-0.05401534665305845
29568.0,-0.05816742185252006
29576.0,-0.06390681989984431
29584.0,-0.06610178136214077
29592.0,-0.07110909534157685
29600.0,-0.07273671650242568
29608.0,-0.06465729720340098
29616.0,-0.05480844892554938
29624.0,-0.05374589370430064
29632.0,-0.057733860652142456
29640.0,-0.05986800728834747
29648.0,-0.05791425058490415
29656.0,-0.05503617832669556
29664.0,-0.0547958539582542
29672.0,-0.056680421490948416
29680.0,-0.058741193772544616
29688.0,-0.0623688419053951
29696.0,-0.0632482040512742
29704.0,-0.06235811097341842
29712.0,-0.06683783722342501
29720.0,-0.07899842026245533
29728.0,-0.07588983186201718
29736.0,-0.025458975126406727
29744.0,0.09552692746455083
29752.0,0.20468056360575274
29760.0,0.21793592902140704
29768.0,0.20696834004222556
29776.0,0.1741157701578125
29784.0,0.0971308908424886
29792.0,0.01562536165648846
29800.0,-0.050255393918391573
29808.0,-0.07577654340726564
29816.0,-0.0773748707192449
29824.0,-0.06936662038116231
29832.0,-0.05753741903646667
29840.0,-0.048997781658330415
29848.0,-0.049960363528863246
29856.0,-0.05676318303302063
29864.0,-0.05822201793572332
29872.0,-0.05214806874206374
29880.0,-0.048354880925557175
29888.0,-0.05099861000362241
29896.0,-0.05513510974406731
29904.0,-0.05457341392386927
29912.0,-0.04756226344340342
29920.0,-0.04040571974598398
29928.0,-0.04298282455142927
29936.0,-0.04589568052759408
29944.0,-0.04503657098429458
29952.0,-0.04397388924821685
29960.0,-0.045009309544040386
29968.0,-0.049331942416648476
29976.0,-0.05489477282652836
29984.0,-0.05692499700372257
29992.0,-0.052795252312114814
30000.0,-0.0492551632836328
30008.0,-0.0492060283106441
30016.0,-0.04873278581442786
30024.0,-0.05123491413411111
30032.0,-0.05515223143432043
30040.0,-0.05938389170048997
30048.0,-0.06296939467300267
30056.0,-0.062480544207497435
30064.0,-0.056799023908238204
30072.0,-0.05106214727964426
30080.0,-0.05209006478038876
30088.0,-0.057139686574711926
30096.0,-0.060846076882430794
30104.0,-0.06078588257446011
30112.0,-0.05935828907283916
30120.0,-0.05239655575596305
30128.0,-0.04559044503300816
30136.0,-0.04523891682268283
30144.0,-0.04953644770458436
30152.0,-0.054136927265677336
30160.0,-0.06025922324370974
30168.0,-0.06367880322005785
30176.0,-0.0646882686667687
30184.0,-0.0650420420644196
30192.0,-0.06235634132817927
30200.0,-0.053928812299874174
30208.0,-0.04742595256739889
30216.0,-0.04644330506839948
30224.0,-0.04445806081349421
30232.0,-0.04672334049765541
30240.0,-0.052548276553519846
30248.0,-0.05854412243143229
30256.0,-0.060474496754855625
30264.0,-0.059942751305595274
30272.0,-0.059858070530260994
30280.0,-0.05658573596653708
30288.0,-0.05191275644603934
30296.0,-0.049086819643636655
30304.0,-0.05498939671756838
30312.0,-0.06350146997579899
30320.0,-0.060862196729823535
30328.0,-0.05732082809251192
30336.0,-0.06530274462345746
30344.0,-0.09036949020849998
30352.0,-0.09964526516362737
30360.0,0.019679556682357213
30368.0,0.4401462553848922
30376.0,1.0596107292650883
30384.0,1.3885391561353007
30392.0,1.2053076891517402
30400.0,0.6154100109192465
30408.0,0.09533370815617503
30416.0,-0.09500788041535659
30424.0,-0.09899582692362895
30432.0,-0.05773433364952199
30440.0,-0.03070442834327156
30448.0,-0.038565623747163914
30456.0,-0.05511511021303343
30464.0,-0.059947956636941094
30472.0,-0.05615926506929492
30480.0,-0.05369946896295615
30488.0,-0.05038603582732091
30496.0,-0.046605887804124495
30504.0,-0.043489569260041105
30512.0,-0.04784305713017014
30520.0,-0.0556761287407628
30528.0,-0.05774137063703681
30536.0,-0.057526852453021894
30544.0,-0.060223817199078274
30552.0,-0.06223157375268669
30560.0,-0.06373203609451465
30568.0,-0.06320920370285067
30576.0,-0.05897568560950248
30584.0,-0.05268550637506857
30592.0,-0.05265809769241047
30600.0,-0.05856184853608368
30608.0,-0.05490525519230383
30616.0,-0.020200448201992814
30624.0,0.047632222686223635
30632.0,0.11425586895420752
30640.0,0.12493448935720208
30648.0,0.06339485707059238
30656.0,-0.008008905381402287
30664.0,-0.03495091863248745
30672.0,-0.03588295817330865
30680.0,-0.04453167163713875
30688.0,-0.04998632998172734
30696.0,-0.04583781406538987
30704.0,-0.03668605599453897
30712.0,-0.03117260600861681
30720.0,-0.032635950700563035
30728.0,-0.03692829356777874
30736.0,-0.04248056129800159
30744.0,-0.046467256741435814
30752.0,-0.04329942579559039
30760.0,-0.03699215537507562
30768.0,-0.03737739829300535
30776.0,-0.03685914857481645
30784.0,-0.03249189211368405
30792.0,-0.0383710147257161
30800.0,-0.046902989457874744
30808.0,-0.048689963002867834
30816.0,-0.04485735166389756
30824.0,-0.04154741990202547
30832.0,-0.04010531706279751
30840.0,-0.03983183247914581
30848.0,-0.04475033199589639
30856.0,-0.053776650889343955
30864.0,-0.05372547145202341
30872.0,-0.04053537383650515
30880.0,-0.028335756219048148
30888.0,-0.027479843688204608
30896.0,-0.035961562858131145
30904.0,-0.04198862221621003
30912.0,-0.042626891269186055
30920.0,-0.043466515757912515
30928.0,-0.04665329328004159
30936.0,-0.047609960930741886
30944.0,-0.04976891279508673
30952.0,-0.053988837061465136
30960.0,-0.05165391726159525
30968.0,-0.047207927879326685
30976.0,-0.044486014289694044
30984.0,-0.04448498450519425
30992.0,-0.044824583362442015
31000.0,-0.0470656088565615
31008.0,-0.047466340710172646
31016.0,-0.045354433505372584
31024.0,-0.04553046178262352
31032.0,-0.043264175341130647
31040.0,-0.041254767730176806
31048.0,-0.04098895010237958
31056.0,-0.042531672168182724
31064.0,-0.04633563605699863
31072.0,-0.04814823942429861
31080.0,-0.045044547442187624
31088.0,-0.040298514792361344
31096.0,-0.0386398769388898
31104.0,-0.040428791153334656
31112.0,-0.037572049643068116
31120.0,-0.03614144725094261
31128.0,-0.042078979590074485
31136.0,-0.04464072311612235
31144.0,-0.046164729367175784
31152.0,-0.049085030542584146
31160.0,-0.0455951603694775
31168.0,-0.04143375963421923
31176.0,-0.04057067776302529
31184.0,-0.04073240982806858
31192.0,-0.04411639850839784
31200.0,-0.04547426568802541
31208.0,-0.03989490272024612
31216.0,-0.03724267953464462
31224.0,-0.042885701802530124
31232.0,-0.0490149495638624
31240.0,-0.050045755556309815
31248.0,-0.047427578458552645
31256.0,-0.04413701991285614
31264.0,-0.0429530908555388
31272.0,-0.044454713549755845
31280.0,-0.0464523963024789
31288.0,-0.04792490403612293
31296.0,-0.046053496432700444
31304.0,-0.043416335540911934
31312.0,-0.04334347641799095
31320.0,-0.048424248056926376
31328.0,-0.05359121995859437
31336.0,-0.05241623534344731
31344.0,-0.053065486934122635
31352.0,-0.07506944634063524
31360.0,-0.10696859735345632
31368.0,-0.0563186321565028
31376.0,0.25980466572897803
31384.0,0.8780878202356512
31392.0,1.3694786523708429
31400.0,1.4349755917719973
31408.0,1.0674943956732035
31416.0,0.44618480577024344
31424.0,0.02613244696954976
31432.0,-0.0864311763504394
31440.0,-0.07310251608225303
31448.0,-0.05221157761127686
31456.0,-0.045887967864282245
31464.0,-0.045479511169566965
31472.0,-0.046936085619801754
31480.0,-0.04853701641497788
31488.0,-0.045042994455167955
31496.0,-0.042329925770660595
31504.0,-0.0454453697181484
31512.0,-0.05113291051800259
31520.0,-0.05137679709186147
31528.0,-0.046282086707885736
31536.0,-0.046400255368072074
31544.0,-0.050388848000212226
31552.0,-0.05625122439350241
31560.0,-0.05711315331611121
31568.0,-0.05426442507800833
31576.0,-0.0531964762562165
31584.0,-0.056118098188792015
31592.0,-0.06087437027844019
31600.0,-0.0656218928065393
31608.0,-0.06548154556973314
31616.0,-0.06081138122525078
31624.0,-0.05526750807678128
31632.0,-0.044823589666708
31640.0,-0.02255806212071737
31648.0,0.004075656859306598
31656.0,0.007444177154660293
31664.0,-0.018039978839401623
31672.0,-0.04308059208881536
31680.0,-0.05247538709401238
31688.0,-0.05346595619556013
31696.0,-0.05070516822403996
31704.0,-0.04894336205129987
31712.0,-0.048736707608791854
31720.0,-0.046184145843962035
31728.0,-0.04176570530558146
31736.0,-0.03737685277355881
31744.0,-0.03666801396075821
31752.0,-0.03708104785389849
31760.0,-0.03348158077154468
31768.0,-0.027359698397991197
31776.0,-0.028160812543672555
31784.0,-0.03152027567289183
31792.0,-0.03335100296265792
31800.0,-0.03222515827772092
31808.0,-0.029615219499029104
31816.0,-0.032418551838253463
31824.0,-0.04052693266420712
31832.0,-0.042503234318777755
31840.0,-0.03425137636436116
31848.0,-0.029656660846519592
31856.0,-0.03297136574117416
31864.0,-0.03713860437957658
31872.0,-0.04019716826261382
31880.0,-0.04108992222687585
31888.0,-0.04423364490194918
31896.0,-0.043127797253331164
31904.0,-0.033575699499872984
31912.0,-0.02855411855388579
31920.0,-0.030431252251026542
31928.0,-0.03643488348434242
31936.0,-0.04119087923090951
31944.0,-0.04223921337834716
31952.0,-0.039263323124583534
31960.0,-0.03622884261631697
31968.0,-0.03847892911355912
31976.0,-0.04137057227942814
31984.0,-0.0417078213341099
31992.0,-0.04015542828946217
32000.0,-0.0355565000384607
32008.0,-0.03498110866929831
32016.0,-0.036805889328741404
32024.0,-0.03391106529061289
32032.0,-0.02969617489136831
32040.0,-0.03174806834187989
32048.0,-0.03471339347240596
32056.0,-0.0380178058630966
32064.0,-0.03932205529536571
32072.0,-0.03667888297873269
32080.0,-0.03601811809237314
32088.0,-0.038848944612293414
32096.0,-0.04163692934280938
32104.0,-0.04122957093399726
32112.0,-0.038150671166823566
32120.0,-0.03849282605147649
32128.0,-0.04109066370304353
32136.0,-0.03825224348751416
32144.0,-0.036230393725331746
32152.0,-0.04107686458565464
32160.0,-0.04522028796915968
32168.0,-0.04547016905513041
32176.0,-0.0446278660520094
32184.0,-0.04279599103954241
32192.0,-0.043015185616531934
32200.0,-0.04662415051371886
32208.0,-0.04715795812866899
32216.0,-0.052277064984452656
32224.0,-0.05900810304486433
32232.0,-0.05670481488941357
32240.0,-0.05199458883071016
32248.0,-0.04905830702671306
32256.0,-0.04483546378240591
32264.0,-0.042072789133791616
32272.0,-0.04366786596051273
32280.0,-0.047262283143101595
32288.0,-0.048018245533436324
32296.0,-0.04868956174521359
32304.0,-0.051207831208576894
32312.0,-0.05594523624907842
32320.0,-0.06474108476649339
32328.0,-0.06691976929666052
32336.0,-0.05859898560672214
32344.0,-0.052380538722153015
32352.0,-0.05379805281701687
32360.0,-0.05301490212607625
32368.0,-0.04686760200780846
32376.0,-0.041663906509475525
32384.0,-0.03853757426153938
32392.0,-0.03901800719842578
32400.0,-0.041052743397923835
32408.0,-0.0461843267297439
32416.0,-0.05398133148118279
32424.0,-0.06858014575341881
32432.0,-0.10271935967157673
32440.0,-0.1224354212994667
32448.0,0.002144457088854909
32456.0,0.45090703545948824
32464.0,1.0885854771526344
32472.0,1.4472952169824018
32480.0,1.377348675461945
32488.0,0.8997223679710021
32496.0,0.2870157277744737
32504.0,-0.03901886464227067
32512.0,-0.0982600552411181
32520.0,-0.07356307920947643
32528.0,-0.04982020706917756
32536.0,-0.03815613309601652
32544.0,-0.03720060039747453
32552.0,-0.0410624338322405
32560.0,-0.04697719166134887
32568.0,-0.05086176641788036
32576.0,-0.05241190530942536
32584.0,-0.05363371753578125
32592.0,-0.052426985679313705
32600.0,-0.048849668886755196
32608.0,-0.04669874418680142
32616.0,-0.04983150754215467
32624.0,-0.05523486326774645
32632.0,-0.055182093574178186
32640.0,-0.057730681260027145
32648.0,-0.06450736475153811
32656.0,-0.06584045888724308
32664.0,-0.06185267511019422
32672.0,-0.06133476872484312
32680.0,-0.06026651313166328
32688.0,-0.0511090667609737
32696.0,-0.02047418698737523
32704.0,0.028019176754181006
32712.0,0.051391249907615164
32720.0,0.055105410378843506
32728.0,0.04133606411330805
32736.0,0.008708020866162897
32744.0,-0.009791898535887016
32752.0,-0.030775009619434076
32760.0,-0.04425964860944878
32768.0,-0.048097943029799035
32776.0,-0.048485922359214104
32784.0,-0.05026869236734428
32792.0,-0.05298905514642644
32800.0,-0.05389562664466209
32808.0,-0.04954484014782077
32816.0,-0.04385739837478858
32824.0,-0.045106932930507104
32832.0,-0.05339889329617584
32840.0,-0.05934072976335203
32848.0,-0.05538846426482705
32856.0,-0.04903695450774001
32864.0,-0.0450774043225546
32872.0,-0.04452106463662761
32880.0,-0.049346789251077494
32888.0,-0.0553682695227277
32896.0,-0.05222133569081222
32904.0,-0.04032521766442957
32912.0,-0.03467724118539513
32920.0,-0.036402354220636125
32928.0,-0.03841314818845375
32936.0,-0.03934352861980377
32944.0,-0.04112342380215712
32952.0,-0.043540565423220115
32960.0,-0.04572462452036275
32968.0,-0.046440514263483765
32976.0,-0.04079280411671783
32984.0,-0.03219133018546731
32992.0,-0.03329447731257144
33000.0,-0.037885194677465955
33008.0,-0.03952767679896344
33016.0,-0.043207439550341904
33024.0,-0.05551195027777355
33032.0,-0.06286891097287488
33040.0,-0.0595025270005387
33048.0,-0.05262011601030752
33056.0,-0.04999496732234256
33064.0,-0.05472747351719801
33072.0,-0.05972602548079497
33080.0,-0.05809660129277153
33088.0,-0.052973373215687944
33096.0,-0.051490817977487724
33104.0,-0.0528548473424397
33112.0,-0.05364767894759394
33120.0,-0.05036612880969871
33128.0,-0.04981759677354687
33136.0,-0.05206846420325665
33144.0,-0.050628389849318334
33152.0,-0.048390013152669206
33160.0,-0.05073614025643474
33168.0,-0.05315368154437971
33176.0,-0.053690656832654726
33184.0,-0.053997288012840226
33192.0,-0.05437269512111181
33200.0,-0.05445522326772303
33208.0,-0.05443198235598049
33216.0,-0.050511535975172606
33224.0,-0.04508162732195156
33232.0,-0.04567192280988341
33240.0,-0.048629996803712036
33248.0,-0.0486116794508426
33256.0,-0.051258216262522055
33264.0,-0.05790299755114488
33272.0,-0.06206867858220431
33280.0,-0.056538626895344696
33288.0,-0.04743837546391358
33296.0,-0.04860714642756052
33304.0,-0.05474849416429057
33312.0,-0.05722945404188684
33320.0,-0.05615310194055442
33328.0,-0.05111878840271228
33336.0,-0.050030524117848876
33344.0,-0.04662819795039833
33352.0,-0.03858944214629943
33360.0,-0.044743897606214014
33368.0,-0.07107424633043391
33376.0,-0.10804118936942986
33384.0,-0.10549461245732623
33392.0,0.07318307836387707
33400.0,0.5624777471126408
33408.0,1.1401906164316054
33416.0,1.3544894996737595
33424.0,1.077302027212118
33432.0,0.47544985954743535
33440.0,0.03706613824458765
33448.0,-0.09468186657982092
