time,ECG
0.0,-0.03398187213552297
8.0,-0.046378847179230964
16.0,-0.045516073400504606
24.0,-0.041107757530837695
32.0,-0.04166440443480077
40.0,-0.044973056476931714
48.0,-0.045994149642514616
56.0,-0.04232151035479604
64.0,-0.037090472014151214
72.0,-0.041886446132147724
80.0,-0.06916818698130278
88.0,-0.09029308356496359
96.0,0.015230232771128076
104.0,0.4254697355839105
112.0,1.027944722584125
120.0,1.291340593085157
128.0,0.9628757103581738
136.0,0.346906104104973
144.0,-0.022488141042439715
152.0,-0.10196726098635489
160.0,-0.07899971726304877
168.0,-0.0579706965920537
176.0,-0.05236786328077572
184.0,-0.05373613287080489
192.0,-0.05772184792840498
200.0,-0.0595608545664622
208.0,-0.05828375191312703
216.0,-0.05530755054965688
224.0,-0.05357823990520403
232.0,-0.05284701764504925
240.0,-0.05356880687484762
248.0,-0.05467737776740534
256.0,-0.054592248646621946
264.0,-0.053912678121470776
272.0,-0.053650508269903474
280.0,-0.054393016393681506
288.0,-0.0546931166184877
296.0,-0.05245452160785285
304.0,-0.05052690443094155
312.0,-0.050496313808969344
320.0,-0.0512690495783539
328.0,-0.049897174469983194
336.0,-0.048204454075809804
344.0,-0.048376261114993456
352.0,-0.04820043444851615
360.0,-0.0458158637083331
368.0,-0.04376858698668316
376.0,-0.04266533903062305
384.0,-0.041998134663785866
392.0,-0.041268741368512475
400.0,-0.0399541161732869
408.0,-0.0376599454022422
416.0,-0.03567442354046428
424.0,-0.03579249373774628
432.0,-0.0350568347211071
440.0,-0.03337829804666397
448.0,-0.03376464340271951
456.0,-0.03454611100484428
464.0,-0.03439477922488324
472.0,-0.03376659597523755
480.0,-0.03317577233165183
488.0,-0.03260480193508719
496.0,-0.031141467849772658
504.0,-0.02709970422948798
512.0,-0.020954878975053617
520.0,-0.01911613924337879
528.0,-0.022166606676635624
536.0,-0.025767735144091804
544.0,-0.026707179595546037
552.0,-0.024808217386102133
560.0,-0.022825011857162576
568.0,-0.023465620859925533
576.0,-0.024272527273046258
584.0,-0.024144513914775696
592.0,-0.023526961996746667
600.0,-0.022854102129559434
608.0,-0.02229130474601883
616.0,-0.02180523197012081
624.0,-0.021079403587214784
632.0,-0.019412905261641494
640.0,-0.01651103759633918
648.0,-0.014511606060645952
656.0,-0.014404194689800323
664.0,-0.01612749314969942
672.0,-0.017383842146932345
680.0,-0.017390970088093757
688.0,-0.01690565283197677
696.0,-0.01646917066761503
704.0,-0.0160309175454079
712.0,-0.014810652051443917
720.0,-0.011614438049618557
728.0,-0.007446138009375929
736.0,-0.006950187000780106
744.0,-0.0086426355892146
752.0,-0.011144440293719336
760.0,-0.012547719818818713
768.0,-0.01260235051224042
776.0,-0.011772374715203732
784.0,-0.009768973668310076
792.0,-0.006844871341170256
800.0,-0.005569771944861104
808.0,-0.006760978798855238
816.0,-0.010483819788032745
824.0,-0.012762386994485309
832.0,-0.006323861954768762
840.0,0.019828157924634226
848.0,0.056541831363458354
856.0,0.05084772031242342
864.0,0.020849813269807737
872.0,0.004449861541755041
880.0,0.002129649236757964
888.0,-0.001145606489363766
896.0,-0.005182167104943805
904.0,-0.0066767528486547335
912.0,-0.006560823155792177
920.0,-0.00608370591525271
928.0,-0.005706269809239384
936.0,-0.00544514674746711
944.0,-0.005230373639928009
952.0,-0.005024434767806518
960.0,-0.004820589958640343
968.0,-0.0046218386774290075
976.0,-0.004430792081454906
984.0,-0.004248183287437795
992.0,-0.0040738050454505546
1000.0,-0.003907263029077944
1008.0,-0.0037485560929212316
1016.0,-0.003599094046105175
1024.0,-0.0034624460198735044
1032.0,-0.0033404953465739
1040.0,-0.0032175487674412843
1048.0,-0.0030364781806336357
1056.0,-0.002722715991746141
1064.0,-0.002394785772484426
1072.0,-0.002839284022731782
1080.0,-0.005654833746162965
1088.0,-0.01087637673252718
1096.0,-0.011658553137943908
1104.0,-0.0064043381363778264
1112.0,-0.002337484715962724
1120.0,0.0001044680866489261
1128.0,0.001305255511682557
1136.0,-0.00021126996301054193
1144.0,-0.0019548508814592486
1152.0,-0.002537886803771753
1160.0,-0.0019425920132909624
1168.0,7.501490509858149e-06
1176.0,0.0021569876691564004
1184.0,0.0026886379465826393
1192.0,0.0021392161054970865
1200.0,0.0015490462705498795
1208.0,0.0004379073605214353
1216.0,-0.0004478837984423869
1224.0,0.0004774061726123362
1232.0,0.0003302052871381079
1240.0,-0.0015029821855106062
1248.0,-0.0024258163813815005
1256.0,-0.0018147748537263421
1264.0,-7.146092940820426e-05
1272.0,0.0004657051875143815
1280.0,-0.00027374612561828645
1288.0,0.00013127920203700503
1296.0,-0.00016037950628119513
1304.0,0.00023814498584548622
1312.0,0.002443506097317842
1320.0,0.0020139669768191224
1328.0,-0.00119582752891876
1336.0,-0.0032920334051558535
1344.0,-0.003872131032622828
1352.0,-0.0038942588319618825
1360.0,-0.00392187091903782
1368.0,-0.004084603011508242
1376.0,-0.004290364280271627
1384.0,-0.0042184278751992025
1392.0,-0.0033436464489180976
1400.0,-0.0018371052414591258
1408.0,-0.0018167514555218873
1416.0,-0.0016815049814508285
1424.0,0.00037534768371643703
1432.0,0.00011350147737971072
1440.0,-0.003166227062668562
1448.0,-0.005589176966012691
1456.0,-0.006497527141517976
1464.0,-0.006302325968308993
1472.0,-0.004359341843681679
1480.0,-0.00036802395231370785
1488.0,0.0026464634911858085
1496.0,0.0027935694832713688
1504.0,-0.00021434606111179607
1512.0,-0.008623080792372454
1520.0,-0.014875795584077797
1528.0,0.001072359500772014
1536.0,0.06596921720152958
1544.0,0.16291240406233817
1552.0,0.21318201663462444
1560.0,0.12829239389107805
1568.0,0.03041160033751984
1576.0,-0.009780232709957606
1584.0,-0.013365314438580904
1592.0,-0.004995345498820004
1600.0,-0.0015798673920890084
1608.0,-0.005850098142849754
1616.0,-0.009691845156018293
1624.0,-0.011015141868953167
1632.0,-0.011140825633523012
1640.0,-0.011274127957807646
1648.0,-0.012192524720186788
1656.0,-0.014172288837067117
1664.0,-0.015351394608811263
1672.0,-0.01404907856870895
1680.0,-0.012982983550332804
1688.0,-0.01293371999015304
1696.0,-0.013349560884393007
1704.0,-0.01359451470159071
1712.0,-0.013029480978428477
1720.0,-0.011566583905711428
1728.0,-0.011509954153865054
1736.0,-0.013551534165740392
1744.0,-0.014989890336306058
1752.0,-0.01567719829628252
1760.0,-0.016644901648686605
1768.0,-0.01858529757488437
1776.0,-0.019959796823551857
1784.0,-0.018848009607358676
1792.0,-0.01786315788326642
1800.0,-0.01779208315516816
1808.0,-0.017721419314581013
1816.0,-0.01674159173405991
1824.0,-0.015662263487193295
1832.0,-0.01715603615005326
1840.0,-0.019350552225144053
1848.0,-0.020499769188249865
1856.0,-0.02040528977302109
1864.0,-0.018717554222700796
1872.0,-0.016422604296090063
1880.0,-0.016685844873795326
1888.0,-0.01970071976645772
1896.0,-0.022163444730424094
1904.0,-0.02230855538590201
1912.0,-0.02107795275226959
1920.0,-0.02144537163799483
1928.0,-0.022569271687199445
1936.0,-0.021433827590577766
1944.0,-0.02017040164858244
1952.0,-0.021756731773877932
1960.0,-0.025049614875654363
1968.0,-0.02660571484435747
1976.0,-0.025531678035034023
1984.0,-0.02325251143600169
1992.0,-0.023180437117168284
2000.0,-0.02543845013135567
2008.0,-0.026664219572459083
2016.0,-0.026768828915600125
2024.0,-0.028721627024713235
2032.0,-0.030701895768009215
2040.0,-0.03159371750583855
2048.0,-0.031356829177903
2056.0,-0.030072347858367023
2064.0,-0.02965722932267659
2072.0,-0.031776444046462085
2080.0,-0.03373017503351693
2088.0,-0.03474735148725579
2096.0,-0.03516862218873771
2104.0,-0.034912608741601445
2112.0,-0.03376747022265101
2120.0,-0.03337273835567687
2128.0,-0.03521270141707071
2136.0,-0.036092834036237746
2144.0,-0.035361043682201734
2152.0,-0.03554119327973488
2160.0,-0.035198502213764374
2168.0,-0.03329868747119853
2176.0,-0.035074783177055834
2184.0,-0.03884923796395859
2192.0,-0.040781849859641686
2200.0,-0.041458694142339735
2208.0,-0.04269223713444557
2216.0,-0.04592075592073049
2224.0,-0.04937520592150249
2232.0,-0.047792912817221644
2240.0,-0.045036014058777225
2248.0,-0.04424639650589111
2256.0,-0.0441699707716972
2264.0,-0.04281142392445869
2272.0,-0.03991522080685872
2280.0,-0.04005483055007639
2288.0,-0.04362313719424758
2296.0,-0.044773758447722675
2304.0,-0.04280905709595066
2312.0,-0.041324017564222396
2320.0,-0.04204381866439162
2328.0,-0.04415707910848581
2336.0,-0.05124390951857186
2344.0,-0.07274448807004716
2352.0,-0.10102951787590898
2360.0,-0.058909089837925685
2368.0,0.2305230525691339
2376.0,0.8352916661560644
2384.0,1.3350754636427995
2392.0,1.3356340345420532
2400.0,0.8341321360666555
2408.0,0.23175694537284486
2416.0,-0.0478299941934352
2424.0,-0.08422390376457492
2432.0,-0.05591703587691331
2440.0,-0.03560617220039466
2448.0,-0.0295137766600011
2456.0,-0.03175621469480817
2464.0,-0.03518027536222198
2472.0,-0.034064683190584505
2480.0,-0.03146787606390198
2488.0,-0.03306174459499633
2496.0,-0.039179977127901125
2504.0,-0.043039376668589646
2512.0,-0.04218975482451321
2520.0,-0.04215870003817479
2528.0,-0.04349872189613629
2536.0,-0.04203932496172349
2544.0,-0.03930087395529631
2552.0,-0.038408641857580555
2560.0,-0.0402638662197794
2568.0,-0.044324689827065784
2576.0,-0.04692831243059844
2584.0,-0.046379304913588444
2592.0,-0.04443159669570121
2600.0,-0.044261662756196044
2608.0,-0.044203995962358966
2616.0,-0.04366319882975487
2624.0,-0.04463724120602171
2632.0,-0.044254989034386454
2640.0,-0.04154293310050413
2648.0,-0.038686128979727806
2656.0,-0.03577586654098312
2664.0,-0.03429227901373408
2672.0,-0.03582090472930653
2680.0,-0.03632736983591472
2688.0,-0.03461720508293962
2696.0,-0.031694487951437596
2704.0,-0.031170737111471225
2712.0,-0.03421181979119109
2720.0,-0.03669094984306037
2728.0,-0.03745431742100375
2736.0,-0.038474647291247464
2744.0,-0.03568102172379565
2752.0,-0.03300139423156204
2760.0,-0.034450912817954385
2768.0,-0.035943221749456765
2776.0,-0.03593577958565157
2784.0,-0.034523471902009384
2792.0,-0.03293725009123887
2800.0,-0.033774224967051354
2808.0,-0.034217065878630035
2816.0,-0.03210639799491267
2824.0,-0.03239087741060608
2832.0,-0.03623897828247775
2840.0,-0.038369066507441686
2848.0,-0.036669407872990646
2856.0,-0.03618782782876637
2864.0,-0.03852726380578931
2872.0,-0.03834711297607226
2880.0,-0.03389399061268268
2888.0,-0.029311204416330398
2896.0,-0.025286132328248858
2904.0,-0.0225363120615374
2912.0,-0.024732238708451745
2920.0,-0.031088251452067305
2928.0,-0.03658676169292001
2936.0,-0.038479760299607355
2944.0,-0.035448005465629276
2952.0,-0.03148425339777057
2960.0,-0.031051641806547334
2968.0,-0.034312065554752566
2976.0,-0.035581471156679575
2984.0,-0.033790018172058275
2992.0,-0.030880776213306347
3000.0,-0.03173057438946511
3008.0,-0.033116708496847266
3016.0,-0.03304396376705557
3024.0,-0.034979485503664025
3032.0,-0.03816988405602653
3040.0,-0.037277533591080256
3048.0,-0.03343860898539054
3056.0,-0.032803928491689976
3064.0,-0.036006284722252584
3072.0,-0.037659585329185806
3080.0,-0.039198518766182355
3088.0,-0.04082858235592441
3096.0,-0.04003135303288088
3104.0,-0.036363913297340386
3112.0,-0.032660254449098994
3120.0,-0.030620926747801532
3128.0,-0.02964594472594075
3136.0,-0.03173698630111728
3144.0,-0.037427863729747525
3152.0,-0.03948013302116866
3160.0,-0.036071468090747204
3168.0,-0.03340307269781975
3176.0,-0.034929615016608274
3184.0,-0.03761627044733652
3192.0,-0.039115412129910064
3200.0,-0.039276744529265634
3208.0,-0.03893753590575141
3216.0,-0.038136951642183906
3224.0,-0.037970332938617686
3232.0,-0.036138769307630485
3240.0,-0.0329287016778392
3248.0,-0.03503921609795204
3256.0,-0.038370272628262245
3264.0,-0.03739860045045891
3272.0,-0.03531121294348033
3280.0,-0.03821436647920075
3288.0,-0.04017546374756342
3296.0,-0.03845955021272295
3304.0,-0.038724657313335194
3312.0,-0.040135726608179836
3320.0,-0.04094733708436445
3328.0,-0.040729545639600684
3336.0,-0.0393035989812539
3344.0,-0.03669617066403699
3352.0,-0.03498496485643804
3360.0,-0.03495344377912047
3368.0,-0.035230130059764816
3376.0,-0.044643471358844625
3384.0,-0.0711368633597773
3392.0,-0.09432204445955329
3400.0,-0.011033334569515439
3408.0,0.36595221202222783
3416.0,0.9937917446914939
3424.0,1.3139804432482545
3432.0,1.016079192328383
3440.0,0.39627007791104196
3448.0,0.008000229647935795
3456.0,-0.08443661938835759
3464.0,-0.06241788778973629
3472.0,-0.033452272486186374
3480.0,-0.02219051824128536
3488.0,-0.022957188148315318
3496.0,-0.026955105130125164
3504.0,-0.031028903716829277
3512.0,-0.034630146300235816
3520.0,-0.036849880014972865
3528.0,-0.03843470579779379
3536.0,-0.03702526352674772
3544.0,-0.03287858866454311
3552.0,-0.03199486469604571
3560.0,-0.03356110249126333
3568.0,-0.03346889967658097
3576.0,-0.03217642774563811
3584.0,-0.0332130911801294
3592.0,-0.03654746504912331
3600.0,-0.03806822522028637
3608.0,-0.037521425191450415
3616.0,-0.0354964103830482
3624.0,-0.03342146008223991
3632.0,-0.03399169484077901
3640.0,-0.035230506380588195
3648.0,-0.035481676802755054
3656.0,-0.035097748707041604
3664.0,-0.03455969162056608
3672.0,-0.03404652228541913
3680.0,-0.033583968618465986
3688.0,-0.03320661186294787
3696.0,-0.03297153566316312
3704.0,-0.03272378697464726
3712.0,-0.031597961041859295
3720.0,-0.027961257297528727
3728.0,-0.02208535021138158
3736.0,-0.019208981163415868
3744.0,-0.02079433952041303
3752.0,-0.022573696997848378
3760.0,-0.02120116942030021
3768.0,-0.018632859473790862
3776.0,-0.017159033449299328
3784.0,-0.015029531462316628
3792.0,-0.012513031362407967
3800.0,-0.011079556781478667
3808.0,-0.011959901801205848
3816.0,-0.01355225400450126
3824.0,-0.015713927986821995
3832.0,-0.016652287760402732
3840.0,-0.015246557632505648
3848.0,-0.011676662501107654
3856.0,-0.009471445505049568
3864.0,-0.009943608857896016
3872.0,-0.011741330985393999
3880.0,-0.012506056731109452
3888.0,-0.013103651557403092
3896.0,-0.014274927698608966
3904.0,-0.013753516693230343
3912.0,-0.012319012645827633
3920.0,-0.010207018207182068
3928.0,-0.00785377392033236
3936.0,-0.00559291347728547
3944.0,-0.006151623413694017
3952.0,-0.006264087662540276
3960.0,-0.0070134511792981
3968.0,-0.007388900297133758
3976.0,-0.008020427336340901
3984.0,-0.009727611011634326
3992.0,-0.011235245834892285
4000.0,-0.010084783219841301
4008.0,-0.005277770604101074
4016.0,-0.00011017640413410721
4024.0,0.0013848039318715016
4032.0,-0.00015828387485847985
4040.0,-0.005317425702444578
4048.0,-0.008365073104425299
4056.0,-0.005256753405847313
4064.0,0.0005360625503856023
4072.0,0.002134934170758518
4080.0,-0.0022116030634515196
4088.0,-0.006065809399064741
4096.0,-0.004853926852161628
4104.0,-0.003044959929610415
4112.0,-0.004265083834525971
4120.0,-0.004216478473736218
4128.0,-0.004574639711740077
4136.0,-0.008201811005319406
4144.0,-0.012916329854025998
4152.0,-0.01626468920807556
4160.0,-0.01388520048653498
4168.0,-0.010101873037849849
4176.0,-0.008399128000164973
4184.0,-0.00807492182587792
4192.0,-0.008096202600096622
4200.0,-0.007832655124427674
4208.0,-0.0066454940424665225
4216.0,-0.00425826309515544
4224.0,-0.0017654724950324598
4232.0,0.002324972213828266
4240.0,0.004594778221058608
4248.0,0.0008342673924098407
4256.0,-0.0038565520490717654
4264.0,-0.00402477455904959
4272.0,0.00026920140308201395
4280.0,0.0032436117404637307
4288.0,0.0017565685574376095
4296.0,0.00024249083881286264
4304.0,-0.0028448044162596633
4312.0,-0.015507355599325614
4320.0,-0.02882632126661322
4328.0,-0.027120874394820325
4336.0,-0.016908811148885827
4344.0,-0.0011870713087034992
4352.0,0.011413696349414911
4360.0,0.013146492394843591
4368.0,0.007927308038858582
4376.0,0.0026566478322193427
4384.0,-0.0004136101150523421
4392.0,0.00010955125083143111
4400.0,0.0028346276858052556
4408.0,0.002169469702944663
4416.0,0.0010660299921181325
4424.0,0.0016905312324957446
4432.0,0.0022590930132025434
4440.0,0.002253701060566435
4448.0,0.0016206780709377732
4456.0,0.0004807178546160596
4464.0,0.0005065170564610553
4472.0,0.0004232575844559188
4480.0,0.0030044160027285823
4488.0,0.008560447604504456
4496.0,0.008844001154922971
4504.0,0.003019591709252776
4512.0,-0.0013631305204663759
4520.0,-0.003486661871992602
4528.0,-0.005465262207327322
4536.0,-0.006835062225135021
4544.0,-0.008293812229698851
4552.0,-0.008879557200167483
4560.0,-0.012041135346045645
4568.0,-0.01226488145291489
4576.0,-0.006308710281483785
4584.0,-0.0025134437240850907
4592.0,-0.000940667402723832
4600.0,0.001130174852339516
4608.0,0.003633579792713197
4616.0,0.004306625626607619
4624.0,0.0028693184896250883
4632.0,0.0006985961828464968
4640.0,0.0018543235182987537
4648.0,0.0063897514420275595
4656.0,0.009409146744007717
4664.0,0.010917703289005792
4672.0,0.010596979269029336
4680.0,0.007525045637355665
4688.0,0.005196151764323775
4696.0,0.005396504525800187
4704.0,0.008107581772652478
4712.0,0.011138339185541123
4720.0,0.008735346091328568
4728.0,0.005780284966629685
4736.0,0.0048493045371032755
4744.0,0.0034622047898587418
4752.0,0.001902486788054791
4760.0,0.00019679297098710072
4768.0,-0.0005209846271556265
4776.0,-0.0013026660739963488
4784.0,-1.3371144871543152e-05
4792.0,0.0022442543979230897
4800.0,0.0010004907561510217
4808.0,-0.0006360632235351063
4816.0,-0.002329888419308885
4824.0,-0.0025904196096886304
4832.0,-0.0016047284820784051
4840.0,-0.0016549236025238724
4848.0,-0.002069561601284226
4856.0,-0.003303832666603506
4864.0,-0.003107055635324471
4872.0,-0.003342481727641713
4880.0,-0.005249891016074975
4888.0,-0.00690033314054484
4896.0,-0.008662368928046952
4904.0,-0.010540073270521455
4912.0,-0.010091233783114004
4920.0,-0.008609220652075852
4928.0,-0.00815132823010913
4936.0,-0.008371721233950392
4944.0,-0.008287425586137636
4952.0,-0.0069929269677503295
4960.0,-0.005037409659530869
4968.0,-0.003570969973989641
4976.0,-0.0015753955958301019
4984.0,0.000810961449021708
4992.0,0.003043048496155646
5000.0,0.001923593714837836
5008.0,0.0008425952507966059
5016.0,-0.0014762671168801129
5024.0,-0.006381267797581498
5032.0,-0.009352916253445791
5040.0,-0.009693465226732426
5048.0,-0.011573980573716084
5056.0,-0.013598130171432011
5064.0,-0.008841487183920645
5072.0,0.01833730828648792
5080.0,0.05790869236523438
5088.0,0.07093056775414867
5096.0,0.052783824395977626
5104.0,0.019350542652189592
5112.0,0.0030572743768916932
5120.0,0.0004350922915262552
5128.0,0.001691535282637845
5136.0,0.0024417100603483337
5144.0,0.0017774413363634736
5152.0,-0.0003531433489480434
5160.0,-0.0026136550392555
5168.0,-0.003288927323339531
5176.0,-0.00368405058449507
5184.0,-0.003420955167685914
5192.0,-0.003927082647381392
5200.0,-0.0030891703868025245
5208.0,-0.002422416688536713
5216.0,-0.004535720690341455
5224.0,-0.008647611041891774
5232.0,-0.01035854385822679
5240.0,-0.011617665437825817
5248.0,-0.01373907790668591
5256.0,-0.015395124246708376
5264.0,-0.015924956182886217
5272.0,-0.016950317535206087
5280.0,-0.021495759521550365
5288.0,-0.024922513341146153
5296.0,-0.026813051091225164
5304.0,-0.0287744832884228
5312.0,-0.030379613006915992
5320.0,-0.029211460796276397
5328.0,-0.02758537021030182
5336.0,-0.02750991992914669
5344.0,-0.024976319836290214
5352.0,-0.020637573933103903
5360.0,-0.01723625770569285
5368.0,-0.018050882364138186
5376.0,-0.022065271865522398
5384.0,-0.02103184142726859
5392.0,-0.016927595271382826
5400.0,-0.0150698963376638
5408.0,-0.015123719862618464
5416.0,-0.01595949597429406
5424.0,-0.01788819344459469
5432.0,-0.021979911196857226
5440.0,-0.026462306580700038
5448.0,-0.02672704675883094
5456.0,-0.025220567656222742
5464.0,-0.027715403385636186
5472.0,-0.029611901532300974
5480.0,-0.027449720389233313
5488.0,-0.02782183402474926
5496.0,-0.030834000549098597
5504.0,-0.032938585619254473
5512.0,-0.032838276924764806
5520.0,-0.031877229561874824
5528.0,-0.031781289374830525
5536.0,-0.03305794127182311
5544.0,-0.031777908259755246
5552.0,-0.03181981997657066
5560.0,-0.03407788503110831
5568.0,-0.03765655313858388
5576.0,-0.04007788662291129
5584.0,-0.03842869871209064
5592.0,-0.035335935841013015
5600.0,-0.03438589227468718
5608.0,-0.0373299445016435
5616.0,-0.040057336944100345
5624.0,-0.04068034857595764
5632.0,-0.04404423654960199
5640.0,-0.047507573205932074
5648.0,-0.047918983935802656
5656.0,-0.045406382635230044
5664.0,-0.04200662265954796
5672.0,-0.04448721235424963
5680.0,-0.05200726428839258
5688.0,-0.05580542817357066
5696.0,-0.054133227278487156
5704.0,-0.05110069070512676
5712.0,-0.04999522974665405
5720.0,-0.04986328029321689
5728.0,-0.047891825322682414
5736.0,-0.04814139525416079
5744.0,-0.05070696276460752
5752.0,-0.049538598954513006
5760.0,-0.0470260466330326
5768.0,-0.04644490331791038
5776.0,-0.04723004090077634
5784.0,-0.048304145161941404
5792.0,-0.05528730133810641
5800.0,-0.07887322194285802
5808.0,-0.10777911314693393
5816.0,-0.06864563169603932
5824.0,0.21534480199265443
5832.0,0.816498078391962
5840.0,1.3121335655742719
5848.0,1.3134889775195704
5856.0,0.8252508332635285
5864.0,0.23396958070842183
5872.0,-0.045065588335704586
5880.0,-0.0842521326816876
5888.0,-0.05654742576179936
5896.0,-0.03635895771241263
5904.0,-0.031219992834724302
5912.0,-0.03224407980642182
5920.0,-0.03372705036097785
5928.0,-0.03436333499934786
5936.0,-0.034626341884593036
5944.0,-0.035343248129102424
5952.0,-0.0370252868731668
5960.0,-0.03825375493865037
5968.0,-0.03721386487621339
5976.0,-0.03697620642180182
5984.0,-0.03833885257948703
5992.0,-0.038132891277779836
6000.0,-0.03639915898454384
6008.0,-0.03599903888692795
6016.0,-0.037939135165098066
6024.0,-0.041395168881959044
6032.0,-0.04241875831730526
6040.0,-0.04090381598717096
6048.0,-0.0395780873226296
6056.0,-0.04136245359887167
6064.0,-0.047351374805558344
6072.0,-0.04908023962829383
6080.0,-0.04674182362707329
6088.0,-0.0449964620661844
6096.0,-0.04398703434348024
6104.0,-0.042000998342609674
6112.0,-0.03868757616454649
6120.0,-0.03842450425223075
6128.0,-0.04011132292279384
6136.0,-0.04064848553179741
6144.0,-0.04048472972172249
6152.0,-0.03858290628972014
6160.0,-0.036976406909382316
6168.0,-0.036499441785332695
6176.0,-0.036901521493346114
6184.0,-0.03831543323848076
6192.0,-0.040221490828427645
6200.0,-0.04045741051529902
6208.0,-0.04057855052648434
6216.0,-0.040047635760746804
6224.0,-0.03821433279345604
6232.0,-0.03718900235656002
6240.0,-0.036967898401021486
6248.0,-0.03713149535380945
6256.0,-0.03783740788030631
6264.0,-0.039454617785969835
6272.0,-0.04071293185996044
6280.0,-0.039499830823460896
6288.0,-0.03868949964744659
6296.0,-0.03985153428381399
6304.0,-0.04093027543640569
6312.0,-0.039535061530941946
6320.0,-0.038386228730929776
6328.0,-0.03898669600388613
6336.0,-0.04090093981868127
6344.0,-0.041324821700013455
6352.0,-0.039672404680474796
6360.0,-0.03857631322992806
6368.0,-0.03829669652843036
6376.0,-0.03853462305598229
6384.0,-0.039659064316443296
6392.0,-0.04216607239574319
6400.0,-0.04431325232964875
6408.0,-0.04459719371969188
6416.0,-0.045395828138480816
6424.0,-0.04778985893002288
6432.0,-0.04819554845538579
6440.0,-0.04712136592755531
6448.0,-0.04502323161120093
6456.0,-0.04324035074485651
6464.0,-0.042468631721232206
6472.0,-0.04502893175456025
6480.0,-0.047437594786253034
6488.0,-0.046813537858147486
6496.0,-0.046636150332507335
6504.0,-0.04533454686368087
6512.0,-0.04264782857388858
6520.0,-0.041209193261460914
6528.0,-0.041867695618623045
6536.0,-0.04423536166165421
6544.0,-0.046175675014881956
6552.0,-0.04689660331701114
6560.0,-0.04700830551192124
6568.0,-0.04707435753909444
6576.0,-0.04652491745690093
6584.0,-0.04469544330630929
6592.0,-0.04281380489739362
6600.0,-0.04219503522462304
6608.0,-0.04227758345674403
6616.0,-0.04250190877879046
6624.0,-0.042639390056812415
6632.0,-0.04252673267840476
6640.0,-0.04197104306356774
6648.0,-0.04131624360358392
6656.0,-0.04285739933352163
6664.0,-0.051588892071116874
6672.0,-0.074012828261098
6680.0,-0.09664208339506243
6688.0,-0.024704524125125644
6696.0,0.32586626026110566
6704.0,0.9455821254708329
6712.0,1.320869132896881
6720.0,1.1355343990696025
6728.0,0.5411788210997733
6736.0,0.06476015373013289
6744.0,-0.08798498092760691
6752.0,-0.08278262283852847
6760.0,-0.05417586024148489
6768.0,-0.04075391576795385
6776.0,-0.03881400078924467
6784.0,-0.03998336111548301
6792.0,-0.04073866139965893
6800.0,-0.040754785027375826
6808.0,-0.04046881150493798
6816.0,-0.040153921158600225
6824.0,-0.03987195657146497
6832.0,-0.03960221716779567
6840.0,-0.03930820565337229
6848.0,-0.03896044903815233
6856.0,-0.03860179906556738
6864.0,-0.03849763076442253
6872.0,-0.03917080447992677
6880.0,-0.040590882223825404
6888.0,-0.04038645785220013
6896.0,-0.03865821159291808
6904.0,-0.038566520314282815
6912.0,-0.03972488786693267
6920.0,-0.04025289262933264
6928.0,-0.042434185950170414
6936.0,-0.04580378757392384
6944.0,-0.04747373208062862
6952.0,-0.04602195487805845
6960.0,-0.04680823270627498
6968.0,-0.04748833708043648
6976.0,-0.044258304451825665
6984.0,-0.04023732774437145
6992.0,-0.03572118848047204
7000.0,-0.03315434244412353
7008.0,-0.03288795848816852
7016.0,-0.03420764807177502
7024.0,-0.03559010488419204
7032.0,-0.03431485798098086
7040.0,-0.032362600628372
7048.0,-0.031396060655844014
7056.0,-0.03106413548765491
7064.0,-0.030882880079654975
7072.0,-0.030672152843365767
7080.0,-0.03042471764629195
7088.0,-0.030167608406438076
7096.0,-0.029915853132162183
7104.0,-0.029673699603227414
7112.0,-0.029442799508085093
7120.0,-0.029221613364645575
7128.0,-0.028992330507896652
7136.0,-0.028707415006284258
7144.0,-0.02833160748493843
7152.0,-0.028042420701404093
7160.0,-0.02856773206809139
7168.0,-0.03098744739842864
7176.0,-0.03417914610936621
7184.0,-0.03264670847769218
7192.0,-0.02892876644144449
7200.0,-0.02700536595955289
7208.0,-0.02648437257097166
7216.0,-0.026838600866404345
7224.0,-0.028683939679024394
7232.0,-0.032069028166894775
7240.0,-0.03345151403866481
7248.0,-0.034352832765790785
7256.0,-0.036318303162569336
7264.0,-0.03280793537872965
7272.0,-0.02979442457030482
7280.0,-0.0288167077155168
7288.0,-0.02704322439508812
7296.0,-0.02588373904076588
7304.0,-0.02555345159541809
7312.0,-0.02553534306560235
7320.0,-0.025534918647454642
7328.0,-0.025493831452614375
7336.0,-0.02543296349386604
7344.0,-0.025372425489605957
7352.0,-0.025318507019392505
7360.0,-0.025270765674262594
7368.0,-0.025227756041128275
7376.0,-0.025188647230307306
7384.0,-0.025153056492950958
7392.0,-0.025120781910942358
7400.0,-0.025091950532063638
7408.0,-0.025067344303188237
7416.0,-0.025047656326093348
7424.0,-0.025029271631282855
7432.0,-0.024996390212723915
7440.0,-0.024922981945935733
7448.0,-0.024824870563587217
7456.0,-0.024900665751917496
7464.0,-0.02563606607614638
7472.0,-0.027277620074667427
7480.0,-0.027981500805200978
7488.0,-0.02666428458175601
7496.0,-0.026600233214212343
7504.0,-0.027898639721003683
7512.0,-0.02728117589843253
7520.0,-0.02558199044684776
7528.0,-0.024763948199862364
7536.0,-0.02463462010080356
7544.0,-0.024711220413200837
7552.0,-0.024779843363479097
7560.0,-0.024737268506596834
7568.0,-0.02437927281516287
7576.0,-0.02353389348734841
7584.0,-0.023008539442075805
7592.0,-0.026257244407940483
7600.0,-0.038635776242369704
7608.0,-0.055433953448529
7616.0,-0.031255246106367915
7624.0,0.13859103439596254
7632.0,0.5189044047022816
7640.0,0.9088805367814258
7648.0,0.8492783205618138
7656.0,0.3722938553956358
7664.0,0.02847129665839117
7672.0,-0.06479395018265277
7680.0,-0.052561132374840926
7688.0,-0.030491257142694995
7696.0,-0.02155332778364465
7704.0,-0.021301346710011076
7712.0,-0.023965287770936892
7720.0,-0.026201785777979828
7728.0,-0.026902168652108496
7736.0,-0.027678845939001072
7744.0,-0.02661439656835435
7752.0,-0.023677030166749956
7760.0,-0.021579786306091992
7768.0,-0.020824872995939325
7776.0,-0.020641379794375386
7784.0,-0.020818102243819244
7792.0,-0.02173086842559203
7800.0,-0.023056616099808313
7808.0,-0.022325086455180075
7816.0,-0.0210973231245236
7824.0,-0.023292379371442736
7832.0,-0.02815180397764502
7840.0,-0.030424629603800397
7848.0,-0.030307522225527305
7856.0,-0.03183359118899225
7864.0,-0.03381160199466254
7872.0,-0.03235942293413677
7880.0,-0.027742132988571665
7888.0,-0.02583971049686922
7896.0,-0.024914835950787514
7904.0,-0.02463457515152988
7912.0,-0.022842204181049826
7920.0,-0.022224913695107675
7928.0,-0.021906416846742646
7936.0,-0.019669431044231873
7944.0,-0.017064113750258864
7952.0,-0.01590372419220836
7960.0,-0.01563554970247373
7968.0,-0.015567114469280722
7976.0,-0.015449966643581546
7984.0,-0.015279045757383227
7992.0,-0.01509091887277745
8000.0,-0.014892035731596318
8008.0,-0.014661339127417667
8016.0,-0.014408740259354725
8024.0,-0.01431211239439855
8032.0,-0.01482725071804741
8040.0,-0.016230107683354873
8048.0,-0.016818923741853585
8056.0,-0.015064518012830392
8064.0,-0.01481059978544952
8072.0,-0.018467676199216985
8080.0,-0.023036787968189445
8088.0,-0.02011323942450129
8096.0,-0.01497015825775289
8104.0,-0.012728175240881543
8112.0,-0.012355067297991018
8120.0,-0.01236006101418052
8128.0,-0.012359459054120756
8136.0,-0.01299836789434013
8144.0,-0.015304353420615145
8152.0,-0.01844454964144541
8160.0,-0.02015125705146629
8168.0,-0.0176588088862496
8176.0,-0.013593547878436276
8184.0,-0.011630870483853048
8192.0,-0.011220484917239187
8200.0,-0.01212294845509476
8208.0,-0.015495619473246638
8216.0,-0.020767403868061533
8224.0,-0.02296942838498295
8232.0,-0.021839981719135773
8240.0,-0.021769543234235755
8248.0,-0.019793119975292203
8256.0,-0.015654206979237015
8264.0,-0.014608046302436124
8272.0,-0.014281706899093149
8280.0,-0.012628093858869333
8288.0,-0.011776112929151128
8296.0,-0.012388308128154064
8304.0,-0.014239359870577678
8312.0,-0.015207067434913846
8320.0,-0.014645715564952422
8328.0,-0.01456683061335317
8336.0,-0.014907826234057245
8344.0,-0.020202446313713786
8352.0,-0.029900999090867485
8360.0,-0.02939135018894178
8368.0,0.02972934436236231
8376.0,0.19942613761906716
8384.0,0.35933900408916186
8392.0,0.29214299529299737
8400.0,0.11606506213625398
8408.0,0.0019456886306193338
8416.0,-0.027062080165116374
8424.0,-0.0220710378706752
8432.0,-0.014906306380055365
8440.0,-0.013080402632834992
8448.0,-0.014815005615726512
8456.0,-0.015731850395713932
8464.0,-0.014306257390294745
8472.0,-0.013249111965551376
8480.0,-0.013013403501401614
8488.0,-0.013076328423316588
8496.0,-0.013164674126516515
8504.0,-0.013550409578766649
8512.0,-0.014975949875365194
8520.0,-0.017534867245033257
8528.0,-0.019432433553711166
8536.0,-0.020911905376105436
8544.0,-0.021150968291538723
8552.0,-0.02219655193886759
8560.0,-0.02276926020923268
8568.0,-0.020838011919788835
8576.0,-0.02235035522960204
8584.0,-0.028123059985122587
8592.0,-0.033522249263573646
8600.0,-0.0370120533652137
8608.0,-0.038971624135227985
8616.0,-0.041512423023528526
8624.0,-0.040575983730188864
8632.0,-0.03507040337127255
8640.0,-0.031657802016846856
8648.0,-0.030639518914637363
8656.0,-0.025676768422018492
8664.0,-0.021121482372412043
8672.0,-0.021790235585080375
8680.0,-0.024795755568798487
8688.0,-0.02450390783619298
8696.0,-0.02262022184863845
8704.0,-0.02019587291855009
8712.0,-0.019186644698340267
8720.0,-0.019286611836867067
8728.0,-0.019646899296270656
8736.0,-0.019943344538360545
8744.0,-0.02046524303234153
8752.0,-0.02203463534275253
8760.0,-0.02503252275850049
8768.0,-0.027701079928263754
8776.0,-0.02933573822833904
8784.0,-0.028224996220647246
8792.0,-0.027967603661770174
8800.0,-0.02810929151335547
8808.0,-0.02704293148034678
8816.0,-0.026948540190346253
8824.0,-0.028569269772379037
8832.0,-0.03071759837662214
8840.0,-0.03332731265693235
8848.0,-0.03403461401262531
8856.0,-0.03165601071996741
8864.0,-0.028772911362076416
8872.0,-0.028461363659500975
8880.0,-0.029943906516812845
8888.0,-0.029428978442146227
8896.0,-0.02829692920891189
8904.0,-0.0287125089833958
8912.0,-0.03103281417264617
8920.0,-0.03361519669849041
8928.0,-0.03417801515375706
8936.0,-0.03276338458356528
8944.0,-0.03124710149702768
8952.0,-0.03253576417887974
8960.0,-0.036355316262909776
8968.0,-0.0386518478844902
8976.0,-0.040729728221227134
8984.0,-0.04587954915216157
8992.0,-0.05120395665158993
9000.0,-0.0534029649766566
9008.0,-0.04830329006382515
9016.0,-0.04141114346144134
9024.0,-0.037691164651501165
9032.0,-0.03611364908733891
9040.0,-0.037404952102082056
9048.0,-0.03971396824235022
9056.0,-0.04051041347414289
9064.0,-0.04043541902042525
9072.0,-0.0416784956459398
9080.0,-0.04373416821817017
9088.0,-0.0424895629999261
9096.0,-0.041171834017281195
9104.0,-0.04066558375968064
9112.0,-0.04631913904808157
9120.0,-0.06940753473421292
9128.0,-0.1025253778244671
9136.0,-0.06399932139141529
9144.0,0.2278861269135991
9152.0,0.8280575799714837
9160.0,1.2980312756851828
9168.0,1.2366191313592254
9176.0,0.694049421881748
9184.0,0.14695226329627917
9192.0,-0.0718715022869638
9200.0,-0.08785799792265213
9208.0,-0.0587459406850873
9216.0,-0.04165530380529584
9224.0,-0.038169252212562635
9232.0,-0.03937681661247557
9240.0,-0.04059583577122079
9248.0,-0.04101731437077125
9256.0,-0.04103448971354415
9264.0,-0.040980096344909026
9272.0,-0.04095336926896208
9280.0,-0.040949142158012077
9288.0,-0.040949438278710226
9296.0,-0.04094020689091729
9304.0,-0.0408933158521442
9312.0,-0.04076368405060469
9320.0,-0.04058017269407465
9328.0,-0.0407000828643159
9336.0,-0.04200281212324236
9344.0,-0.044955852944448996
9352.0,-0.047301713791525084
9360.0,-0.047183988813192745
9368.0,-0.04507674048686448
9376.0,-0.046074939283357264
9384.0,-0.050358507540001644
9392.0,-0.05316623654953019
9400.0,-0.05220203049974284
9408.0,-0.0508433289217308
9416.0,-0.05113128326615611
9424.0,-0.05000546303186594
9432.0,-0.04676252183704686
9440.0,-0.04493786054642739
9448.0,-0.04499671313850005
9456.0,-0.04637921281491351
9464.0,-0.04449135123270811
9472.0,-0.0417556260658223
9480.0,-0.041877751334837204
9488.0,-0.04286160968964119
9496.0,-0.04158027860982783
9504.0,-0.04015617506009256
9512.0,-0.03964571938546798
9520.0,-0.039625257816951094
9528.0,-0.0396985264202694
9536.0,-0.03973314889665542
9544.0,-0.03970426769313177
9552.0,-0.03959034274711269
9560.0,-0.03944886975859554
9568.0,-0.039685690972975626
9576.0,-0.04120777935878313
9584.0,-0.04428183742795278
9592.0,-0.04554589280042046
9600.0,-0.04285974819446654
9608.0,-0.04109779421206673
9616.0,-0.04350569805646889
9624.0,-0.04814983907551817
9632.0,-0.04994514631868174
9640.0,-0.04886251829197101
9648.0,-0.046947369526442746
9656.0,-0.04487360833593638
9664.0,-0.04297689670493703
9672.0,-0.04186390379833429
9680.0,-0.042725310822460255
9688.0,-0.04275025595466045
9696.0,-0.041979688987887995
9704.0,-0.044322507355810774
9712.0,-0.048969328839782306
9720.0,-0.048537497596420995
9728.0,-0.04367666146508692
9736.0,-0.041949599895858426
9744.0,-0.045075658428729196
9752.0,-0.050622714932767994
9760.0,-0.05462920567721706
9768.0,-0.051296511378940216
9776.0,-0.0466446523653021
9784.0,-0.04393967177579914
9792.0,-0.044252108757308437
9800.0,-0.046990900918138796
9808.0,-0.04748819706440171
9816.0,-0.046252662112472885
9824.0,-0.045126066488349145
9832.0,-0.04306938358786683
9840.0,-0.04190483777933882
9848.0,-0.04182074910091406
9856.0,-0.04248103204091408
9864.0,-0.043612385574065306
9872.0,-0.04363549205207763
9880.0,-0.041902317527717774
9888.0,-0.04691802750872899
9896.0,-0.06806777142308086
9904.0,-0.09287087000042676
9912.0,-0.038050482506794464
9920.0,0.26009365813400126
9928.0,0.8145475714783151
9936.0,1.2125710717984661
9944.0,1.0950755787720554
9952.0,0.5552717728739013
9960.0,0.08408511121811561
9968.0,-0.08041039658786509
9976.0,-0.0822091823070409
9984.0,-0.05664499452979396
9992.0,-0.046958065901755476
10000.0,-0.04800456654187661
10008.0,-0.04683994811721803
10016.0,-0.043248279378412705
10024.0,-0.04097058001833703
10032.0,-0.040230355892276096
10040.0,-0.04088314189486374
10048.0,-0.04409383122001641
10056.0,-0.049517920471790385
10064.0,-0.05029759161808739
10072.0,-0.04842520117318837
10080.0,-0.04802827581424263
10088.0,-0.045990820764258124
10096.0,-0.043447609518334825
10104.0,-0.043911984297530654
10112.0,-0.04510484099259696
10120.0,-0.04511913842234236
10128.0,-0.04494910470153708
10136.0,-0.04735492409930704
10144.0,-0.05196280035123008
10152.0,-0.054458943705869414
10160.0,-0.05856862303728499
10168.0,-0.06252403148246757
10176.0,-0.05839564774597971
10184.0,-0.057184074332138436
10192.0,-0.05800350116202683
10200.0,-0.057920366414358854
10208.0,-0.054234040226963764
10216.0,-0.05048125847173346
10224.0,-0.04517018902500917
10232.0,-0.03944797454035055
10240.0,-0.03694053005203574
10248.0,-0.0364698489134584
10256.0,-0.03653564955313441
10264.0,-0.0371775682059065
10272.0,-0.03952706678087128
10280.0,-0.04321631236333104
10288.0,-0.0436929670729153
10296.0,-0.04179186334555378
10304.0,-0.03978829509920366
10312.0,-0.039606143389243544
10320.0,-0.039995405635265505
10328.0,-0.04117589859750769
10336.0,-0.04275146943888448
10344.0,-0.041147721614022914
10352.0,-0.041000326453967464
10360.0,-0.042836854806062565
10368.0,-0.043397935962642
10376.0,-0.04072277871201177
10384.0,-0.037504094573808405
10392.0,-0.03618601117664363
10400.0,-0.0360112678060608
10408.0,-0.036107378519217824
10416.0,-0.036494145871888976
10424.0,-0.03785745337148292
10432.0,-0.04017434425843476
10440.0,-0.041042877393689
10448.0,-0.040247800075370266
10456.0,-0.03916167506362896
10464.0,-0.041698596902443805
10472.0,-0.046520713671114114
10480.0,-0.05013499566121359
10488.0,-0.04954680380733251
10496.0,-0.0437788954948795
10504.0,-0.0404340126026757
10512.0,-0.0408781876797004
10520.0,-0.046859184446753264
10528.0,-0.05255959300192527
10536.0,-0.05104644485048783
10544.0,-0.04609975486064971
10552.0,-0.04419572260655476
10560.0,-0.04296172178582695
10568.0,-0.041621568173570656
10576.0,-0.03942531986011602
10584.0,-0.03772696090954895
10592.0,-0.037216405690149265
10600.0,-0.037277663280120554
10608.0,-0.03768728527543752
10616.0,-0.038678408390582585
10624.0,-0.039791307310415
10632.0,-0.038452840425779664
10640.0,-0.03680030119421814
10648.0,-0.04436199171519429
10656.0,-0.06849918888819917
10664.0,-0.08887116641980758
10672.0,-0.004533518884276188
10680.0,0.3611639540022407
10688.0,0.9574586944655796
10696.0,1.2615595741184191
10704.0,0.9804429120991068
10712.0,0.3801753876735042
10720.0,0.001826000571959367
10728.0,-0.08846993177099885
10736.0,-0.06898134644147454
10744.0,-0.04390624885855247
10752.0,-0.034654253375230815
10760.0,-0.034132786198373254
10768.0,-0.0352834103447129
10776.0,-0.036164320238216835
10784.0,-0.037560669264159886
10792.0,-0.03972518414472426
10800.0,-0.04040111751369559
10808.0,-0.03922014362920701
10816.0,-0.03653259075472472
10824.0,-0.03492766097001781
10832.0,-0.035034094059460556
10840.0,-0.036539846435956334
10848.0,-0.03772089525609663
10856.0,-0.03721201482184146
10864.0,-0.03740565193913749
10872.0,-0.03749269711726268
10880.0,-0.03901683260902945
10888.0,-0.041601055269428394
10896.0,-0.043644129998390534
10904.0,-0.04610726355576324
10912.0,-0.05061986672786136
10920.0,-0.05307926348010153
10928.0,-0.051488733243506724
10936.0,-0.04788276797135953
10944.0,-0.04609231336022761
10952.0,-0.046056468914520865
10960.0,-0.044763394213347546
10968.0,-0.043879273450609824
10976.0,-0.04344726660359611
10984.0,-0.0415008342563551
10992.0,-0.03788356396336881
11000.0,-0.034373243949970204
11008.0,-0.0314927638208635
11016.0,-0.030324741472236683
11024.0,-0.03011342507166984
11032.0,-0.030057924249971155
11040.0,-0.029995234863997605
11048.0,-0.030312412915314314
11056.0,-0.03157547113293811
11064.0,-0.03306916194312054
11072.0,-0.032041199715998905
11080.0,-0.030109385507583932
11088.0,-0.029449755251351205
11096.0,-0.030562492636224813
11104.0,-0.033298271762425995
11112.0,-0.03577730474462213
11120.0,-0.037328773355313864
11128.0,-0.03576790795404695
11136.0,-0.0332047959983663
11144.0,-0.03062566250918107
11152.0,-0.030463785171872634
11160.0,-0.03265188950470592
11168.0,-0.03438247364739058
11176.0,-0.03511128783683502
11184.0,-0.033939195839835255
11192.0,-0.0314761465870107
11200.0,-0.031753760983644276
11208.0,-0.036050467676811145
11216.0,-0.03977919894289449
11224.0,-0.03878638886828163
11232.0,-0.0355871586994731
11240.0,-0.032990184717405564
11248.0,-0.030514785065397086
11256.0,-0.029600056819136553
11264.0,-0.03032633015517099
11272.0,-0.03221202554731663
11280.0,-0.03306670425991917
11288.0,-0.03166310587304857
11296.0,-0.031301839527905585
11304.0,-0.03280219459321162
11312.0,-0.033457435717763065
11320.0,-0.03192352638802242
11328.0,-0.030821510159609832
11336.0,-0.03056336832476278
11344.0,-0.0306594616900238
11352.0,-0.03102291484989017
11360.0,-0.032101002981613384
11368.0,-0.03398504939847296
11376.0,-0.03483130409212204
11384.0,-0.03569125387264878
11392.0,-0.037903793304106086
11400.0,-0.038369224809211865
11408.0,-0.03834370651924494
11416.0,-0.03776763531781445
11424.0,-0.03760168372490587
11432.0,-0.04148596425187575
11440.0,-0.045862031487355584
11448.0,-0.046432047349097644
11456.0,-0.04395108702771621
11464.0,-0.040209737548896125
11472.0,-0.03669805388226423
11480.0,-0.03393804169134519
11488.0,-0.03301506211813935
11496.0,-0.033100964811799194
11504.0,-0.033357995454398014
11512.0,-0.03346451986297658
11520.0,-0.033363418614771864
11528.0,-0.03323978559441083
11536.0,-0.03389156311644954
11544.0,-0.03678192745007503
11552.0,-0.043484587429203775
11560.0,-0.06251393333713325
11568.0,-0.08844944948872986
11576.0,-0.03775176404084524
11584.0,0.27211010218316833
11592.0,0.8752059832727546
11600.0,1.2942024395511273
11608.0,1.1361650939312204
11616.0,0.5431539506350372
11624.0,0.06902824390056274
11632.0,-0.08039892205102994
11640.0,-0.07388293959814661
11648.0,-0.04526882042110564
11656.0,-0.032592823054093126
11664.0,-0.032266750576153545
11672.0,-0.034818624316252926
11680.0,-0.035074487978072055
11688.0,-0.03568025290195633
11696.0,-0.03672239032796488
11704.0,-0.03627656484502971
11712.0,-0.03425731074733334
11720.0,-0.03313374094217724
11728.0,-0.03526011837039023
11736.0,-0.03864505455992984
11744.0,-0.04109051423348393
11752.0,-0.042184387061059155
11760.0,-0.04173820040167586
11768.0,-0.04055689499208365
11776.0,-0.041194558039574586
11784.0,-0.04416737441231407
11792.0,-0.04571357775114172
11800.0,-0.04627863419892328
11808.0,-0.04745851719690605
11816.0,-0.0471859663044081
11824.0,-0.046035867857169066
11832.0,-0.04736922968018607
11840.0,-0.04846364965873419
11848.0,-0.047847079579977005
11856.0,-0.0451886901009545
11864.0,-0.03924733245830157
11872.0,-0.03500007452455978
11880.0,-0.03271031928893193
11888.0,-0.03226249904873764
11896.0,-0.03131638876443371
11904.0,-0.028976864891678545
11912.0,-0.028009222024494886
11920.0,-0.02870653515281121
11928.0,-0.027965559390745926
11936.0,-0.02767461154692805
11944.0,-0.030213644533170634
11952.0,-0.03180626083865548
11960.0,-0.029864616416045927
11968.0,-0.029087679659079373
11976.0,-0.028545650458868387
11984.0,-0.028214243062428396
11992.0,-0.02679281864811732
12000.0,-0.026385191812238067
12008.0,-0.027152899181784408
12016.0,-0.0261985337477688
12024.0,-0.025763184553653444
12032.0,-0.02832916887596231
12040.0,-0.03091498362868113
12048.0,-0.029804900138402052
12056.0,-0.02818759019158589
12064.0,-0.028188597670429232
12072.0,-0.029984609183087627
12080.0,-0.02810432430047083
12088.0,-0.024828476622336528
12096.0,-0.023302514004629408
12104.0,-0.023000074410418764
12112.0,-0.023400828394835944
12120.0,-0.025052277580797876
12128.0,-0.028148628024030054
12136.0,-0.029340075952458612
12144.0,-0.026836282692950582
12152.0,-0.025504700265755086
12160.0,-0.027487174593776077
12168.0,-0.029978102944374814
12176.0,-0.031527943872268774
12184.0,-0.033318603858514186
12192.0,-0.03779343304184887
12200.0,-0.04402456503271218
12208.0,-0.04495988508177862
12216.0,-0.04040766066180092
12224.0,-0.03478132885556787
12232.0,-0.031029165495896717
12240.0,-0.03089184192181211
12248.0,-0.031430604712395116
12256.0,-0.030713901662416672
12264.0,-0.029806890732576682
12272.0,-0.029632481184960716
12280.0,-0.03025938945901651
12288.0,-0.031967317062944256
12296.0,-0.03420545264234003
12304.0,-0.034138116011521245
12312.0,-0.0320917118166149
12320.0,-0.02860380927124325
12328.0,-0.027316040158062313
12336.0,-0.028569938782995796
12344.0,-0.02881652587425946
12352.0,-0.027497897063421352
12360.0,-0.028710685617730332
12368.0,-0.03406927344792562
12376.0,-0.03892800486120987
12384.0,-0.03746556311792804
12392.0,-0.03608177386586179
12400.0,-0.03689090998288567
12408.0,-0.036408226873904444
12416.0,-0.03353822620057174
12424.0,-0.032183378788409975
12432.0,-0.033533333411234344
12440.0,-0.036531839832976976
12448.0,-0.03973262494117977
12456.0,-0.04382249678012283
12464.0,-0.0470442830137434
12472.0,-0.050837288968473573
12480.0,-0.053654507505770985
12488.0,-0.04905607238755157
12496.0,-0.04133397278236636
12504.0,-0.03662537489161528
12512.0,-0.032763278912906514
12520.0,-0.03033281515103312
12528.0,-0.030067296282627404
12536.0,-0.03167959133931559
12544.0,-0.034681568906808916
12552.0,-0.03620048159675155
12560.0,-0.03471275300643825
12568.0,-0.032580343459799745
12576.0,-0.035444914724724025
12584.0,-0.054375946207602104
12592.0,-0.08392562627159633
12600.0,-0.05273123371634478
12608.0,0.19574571732284868
12616.0,0.7263573242054709
12624.0,1.2101503037722854
12632.0,1.2366396271976199
12640.0,0.7637949065322135
12648.0,0.20617543273225009
12656.0,-0.04686989929575509
12664.0,-0.0791081972709267
12672.0,-0.054053156856400164
12680.0,-0.03810876680289961
12688.0,-0.03488374556582076
12696.0,-0.03526438838239028
12704.0,-0.03579295644835955
12712.0,-0.03755536829197975
12720.0,-0.038929182232962954
12728.0,-0.03681887087518341
12736.0,-0.03548615657161166
12744.0,-0.03376914046739797
12752.0,-0.03202155748752299
12760.0,-0.030836795819464254
12768.0,-0.03223267942222715
12776.0,-0.03430426928108476
12784.0,-0.03303247475290323
12792.0,-0.03056357948581564
12800.0,-0.032217058585110356
12808.0,-0.03597505503478795
12816.0,-0.03933180711373773
12824.0,-0.04516632341054237
12832.0,-0.048204699645873886
12840.0,-0.04539914273349113
12848.0,-0.04358688684641192
12856.0,-0.042989061872714264
12864.0,-0.042473086371747605
12872.0,-0.041244572896184134
12880.0,-0.03972596711787275
12888.0,-0.03894841325417425
12896.0,-0.03704335957682462
12904.0,-0.03480831777799383
12912.0,-0.031326563316633964
12920.0,-0.028559426862198128
12928.0,-0.027450928016016226
12936.0,-0.025087962249116042
12944.0,-0.021351037856856332
12952.0,-0.01916505054957841
12960.0,-0.01858413239003634
12968.0,-0.01912178331297841
12976.0,-0.020659742011886806
12984.0,-0.021671332031332147
12992.0,-0.022278663962850172
13000.0,-0.023645448982292004
13008.0,-0.02123714363695784
13016.0,-0.018110798081817207
13024.0,-0.01868316351907138
13032.0,-0.02217963248639974
13040.0,-0.024979116439617036
13048.0,-0.02394323991442998
13056.0,-0.020558256152094383
13064.0,-0.020167318389422796
13072.0,-0.020295834568686607
13080.0,-0.01695253620496267
13088.0,-0.015131787158417322
13096.0,-0.01722350944839858
13104.0,-0.020663929395747672
13112.0,-0.020101593917772612
13120.0,-0.017583897680707623
13128.0,-0.01799945159725396
13136.0,-0.021874968508554277
13144.0,-0.02347810384711159
13152.0,-0.021472922106840524
13160.0,-0.0170302288405574
13168.0,-0.014975378573700801
13176.0,-0.013852740998865534
13184.0,-0.012599695318658273
13192.0,-0.013155857493947147
13200.0,-0.014007847178259905
13208.0,-0.012271404468882972
13216.0,-0.010553843762015833
13224.0,-0.01171535417868778
13232.0,-0.01731394976827456
13240.0,-0.025005884154238392
13248.0,-0.027034822860702228
13256.0,-0.02149846632421228
13264.0,-0.016492536393918716
13272.0,-0.01715606271397235
13280.0,-0.01822992328699046
13288.0,-0.01593380244101165
13296.0,-0.01306265506020223
13304.0,-0.010773802940620117
13312.0,-0.011646617033945664
13320.0,-0.014974016875370418
13328.0,-0.018214626021172648
13336.0,-0.019679971466811275
13344.0,-0.018346775884811022
13352.0,-0.01580276300709573
13360.0,-0.011794567811098703
13368.0,-0.008917577104087164
13376.0,-0.007900416529241524
13384.0,-0.008952755477409969
13392.0,-0.014152026544546257
13400.0,-0.023471299768573484
13408.0,-0.02524229663726149
13416.0,0.005200780841952613
13424.0,0.08329012697309901
13432.0,0.1853335628517983
13440.0,0.23210557232614498
13448.0,0.13547622750115176
13456.0,0.024742011899851007
13464.0,-0.01686803371668013
13472.0,-0.019017696358755175
13480.0,-0.014141432576919508
13488.0,-0.012935132300743129
13496.0,-0.013112210114973356
13504.0,-0.013227689272893379
13512.0,-0.01197770078488433
13520.0,-0.010951326346090204
13528.0,-0.012731024890055117
13536.0,-0.01602512233482847
13544.0,-0.017576791929354556
13552.0,-0.015599292618950013
13560.0,-0.011899139052657128
13568.0,-0.010413160982972165
13576.0,-0.012250543753420317
13584.0,-0.01716807468056558
13592.0,-0.020610128078624477
13600.0,-0.02032590573174337
13608.0,-0.02292995923524391
13616.0,-0.028097980988457644
13624.0,-0.03340430516725799
13632.0,-0.03638445458138634
13640.0,-0.03229718017994269
13648.0,-0.009588097958034246
13656.0,0.02061019404014554
13664.0,0.011921971994208282
13672.0,-0.021298262299118912
13680.0,-0.03661023975119035
13688.0,-0.03416590543306103
13696.0,-0.026564697917946592
13704.0,-0.020160147007931964
13712.0,-0.016381337166032826
13720.0,-0.01684338856595089
13728.0,-0.0195623655805982
13736.0,-0.023763069856723582
13744.0,-0.027094116935431137
13752.0,-0.02413249792974917
13760.0,-0.019653568041632277
13768.0,-0.018327308691399948
13776.0,-0.01968654070900477
13784.0,-0.019450633070792263
13792.0,-0.018213589734144213
13800.0,-0.018269726603398817
13808.0,-0.020021086757975766
13816.0,-0.022287970131392592
13824.0,-0.02374904341408048
13832.0,-0.026077530758213993
13840.0,-0.02552270113565784
13848.0,-0.024410161292704895
13856.0,-0.02511203869650845
13864.0,-0.026449963358445697
13872.0,-0.027919654450680113
13880.0,-0.029005774421265437
13888.0,-0.02940870752852494
13896.0,-0.028820726843414798
13904.0,-0.02954239512290176
13912.0,-0.030444885441321394
13920.0,-0.029071036475517734
13928.0,-0.02649224083216134
13936.0,-0.02710990449082571
13944.0,-0.030627500823359865
13952.0,-0.03313696973764212
13960.0,-0.03248221157101911
13968.0,-0.032748194968517
13976.0,-0.03629736975453916
13984.0,-0.039466078730902625
13992.0,-0.03898672492248147
14000.0,-0.03663962920437705
14008.0,-0.03477145666470094
14016.0,-0.0345954388252079
14024.0,-0.03691825801251648
14032.0,-0.04015331102156841
14040.0,-0.04389664911487279
14048.0,-0.0463010204249783
14056.0,-0.043774282631306574
14064.0,-0.0397210150022122
14072.0,-0.037903716133266485
14080.0,-0.040481644608788614
14088.0,-0.04127739279164965
14096.0,-0.038469568570358346
14104.0,-0.03654094190232841
14112.0,-0.0346908612408536
14120.0,-0.03527304347825965
14128.0,-0.039555269112454
14136.0,-0.04451670217641298
14144.0,-0.04612312762202625
14152.0,-0.045853486171958155
14160.0,-0.04746064895811508
14168.0,-0.06021858990059071
14176.0,-0.08587286574652751
14184.0,-0.07033653741379486
14192.0,0.13703383917642364
14200.0,0.653988118861238
14208.0,1.2028516402017695
14216.0,1.3218491578589553
14224.0,0.9065711503126117
14232.0,0.29745653483336926
14240.0,-0.029147180646265116
14248.0,-0.09020424767387994
14256.0,-0.06512441121298039
14264.0,-0.042389216871656955
14272.0,-0.03540853560637544
14280.0,-0.03583228502436075
14288.0,-0.03723716850111885
14296.0,-0.03783561952267439
14304.0,-0.03782986425819339
14312.0,-0.03773406416750846
14320.0,-0.038106454552323574
14328.0,-0.039469945805174544
14336.0,-0.04099131278040315
14344.0,-0.03985098701258697
14352.0,-0.03775816541194099
14360.0,-0.03728956011817137
14368.0,-0.040103281567950996
14376.0,-0.04686519524176889
14384.0,-0.050744821227381026
14392.0,-0.04836016665019964
14400.0,-0.04917186501367146
14408.0,-0.05355139726906934
14416.0,-0.05925678779088931
14424.0,-0.06737535667726333
14432.0,-0.07197235506296482
14440.0,-0.06465345589877955
14448.0,-0.05592025128557143
14456.0,-0.05308000149477706
14464.0,-0.052217626712319797
14472.0,-0.05056986776743617
14480.0,-0.052087592049526954
14488.0,-0.05437307790400002
14496.0,-0.051555912165289305
14504.0,-0.04495149247812998
14512.0,-0.04116148773341539
14520.0,-0.040625966815252525
14528.0,-0.040212584527599016
14536.0,-0.038271176516231784
14544.0,-0.03662081546053908
14552.0,-0.03602286112117584
14560.0,-0.03587020594588587
14568.0,-0.03599182952544568
14576.0,-0.03710719008756113
14584.0,-0.04004170615869514
14592.0,-0.04246192540871964
14600.0,-0.040380060352677855
14608.0,-0.03894595442366799
14616.0,-0.040924929074384706
14624.0,-0.04186523747316756
14632.0,-0.03923080612037759
14640.0,-0.03723724722940835
14648.0,-0.03784221086042516
14656.0,-0.0394068984769297
14664.0,-0.039787769269825426
14672.0,-0.04172741661209977
14680.0,-0.04425129628615089
14688.0,-0.043718964620728974
14696.0,-0.039537364770403455
14704.0,-0.036884960097247385
14712.0,-0.03748835288287089
14720.0,-0.04127924680620953
14728.0,-0.04559677807785401
14736.0,-0.04588522809041123
14744.0,-0.044231453117300916
14752.0,-0.043851699310285965
14760.0,-0.043554952215969216
14768.0,-0.042487676046276714
14776.0,-0.04181711119815321
14784.0,-0.04251789158816342
14792.0,-0.04396468304241053
14800.0,-0.04457003718520381
14808.0,-0.0418194970175059
14816.0,-0.040905498239099586
14824.0,-0.04267516829852732
14832.0,-0.04356177130887216
14840.0,-0.04249487313730472
14848.0,-0.03997088219632488
14856.0,-0.03940268113262403
14864.0,-0.043062025823875166
14872.0,-0.05089801040913737
14880.0,-0.05476265068470044
14888.0,-0.05303229321177761
14896.0,-0.05162935266830854
14904.0,-0.04976668924362205
14912.0,-0.04879035359841973
14920.0,-0.05118250123077572
14928.0,-0.05253114297542405
14936.0,-0.04753330993052095
14944.0,-0.04253172275152726
14952.0,-0.04083472325294381
14960.0,-0.04087242816545705
14968.0,-0.04127524960795172
14976.0,-0.04191229633362453
14984.0,-0.04321259918770534
14992.0,-0.0445251765538363
15000.0,-0.043680899960528666
15008.0,-0.04410654882478854
15016.0,-0.05289271825733014
15024.0,-0.07864647482699734
15032.0,-0.09698702472957743
15040.0,0.00968294489656273
15048.0,0.42843044065825253
15056.0,1.0576775735416966
15064.0,1.3789104525761116
15072.0,1.156032773325565
15080.0,0.5473379776531664
15088.0,0.06622682608045982
15096.0,-0.08818114045122018
15104.0,-0.08304122564691589
15112.0,-0.054247332843319646
15120.0,-0.04117161852941494
15128.0,-0.04058209146423786
15136.0,-0.04324426660692664
15144.0,-0.043123007993109704
15152.0,-0.0424124233309128
15160.0,-0.04456318574303814
15168.0,-0.048051128867338554
15176.0,-0.047411793731232124
15184.0,-0.044387117057946616
15192.0,-0.041507075338786344
15200.0,-0.04139646406277622
15208.0,-0.04316851329274608
15216.0,-0.04378717422467401
15224.0,-0.04389880649443976
15232.0,-0.045913976917633006
15240.0,-0.05094628102268505
15248.0,-0.05212772335401886
15256.0,-0.04901665029302435
15264.0,-0.04768976870083272
15272.0,-0.047242482679315294
15280.0,-0.047547941152872
15288.0,-0.05520462652238488
15296.0,-0.06663807653724677
15304.0,-0.0699284361300289
15312.0,-0.06764784680547964
15320.0,-0.06121285374190104
15328.0,-0.05464008996858636
15336.0,-0.05153610901073522
15344.0,-0.050872359947464245
15352.0,-0.04846412031629141
15360.0,-0.04534636337409327
15368.0,-0.04115431209432724
15376.0,-0.037256462000971435
15384.0,-0.036171095700281014
15392.0,-0.03747858406193868
15400.0,-0.03877385996288571
15408.0,-0.037320046278181876
15416.0,-0.03580975601290117
15424.0,-0.036494250429940304
15432.0,-0.039599229679940916
15440.0,-0.04153887963812237
15448.0,-0.038816811829585095
15456.0,-0.03677830997171994
15464.0,-0.03743683281348979
15472.0,-0.0377068306839323
15480.0,-0.03689629421063259
15488.0,-0.0381200763286554
15496.0,-0.04013955485894752
15504.0,-0.040225125109665416
15512.0,-0.03948432859528461
15520.0,-0.039793999458317186
15528.0,-0.039507710605550986
15536.0,-0.037890902933018465
15544.0,-0.03627769817943982
15552.0,-0.03710225017360546
15560.0,-0.03934742721760131
15568.0,-0.041200266517914926
15576.0,-0.04339349557949889
15584.0,-0.04449187807163968
15592.0,-0.04323477121208922
15600.0,-0.04197892894053196
15608.0,-0.04208111326940071
15616.0,-0.04450269413678015
15624.0,-0.045877391754655536
15632.0,-0.0434860081005397
15640.0,-0.03965609513755961
15648.0,-0.03699664169896982
15656.0,-0.03637277743350838
15664.0,-0.0369966199117154
15672.0,-0.03859103782652445
15680.0,-0.04035862262224553
15688.0,-0.04046636886401297
15696.0,-0.04179607948978944
15704.0,-0.04455512489492557
15712.0,-0.04466779673251049
15720.0,-0.04493739052902361
15728.0,-0.04368613895957274
15736.0,-0.042308732379992685
15744.0,-0.045481724103345604
15752.0,-0.04942229677621242
15760.0,-0.05057988075717945
15768.0,-0.04965757588402598
15776.0,-0.04625101874853787
15784.0,-0.04440722958447362
15792.0,-0.0459648961207129
15800.0,-0.05017951257152
15808.0,-0.05381495893875847
15816.0,-0.054764758741157195
15824.0,-0.05510427672695815
15832.0,-0.05864128495224821
15840.0,-0.06392036120233272
15848.0,-0.06673339369825111
15856.0,-0.05966272631531271
15864.0,-0.05004657066086764
15872.0,-0.04485062698357208
15880.0,-0.042304418064054765
15888.0,-0.04250231689309668
15896.0,-0.045684340954013185
15904.0,-0.050802126689847786
15912.0,-0.05356881320067182
15920.0,-0.05293239354861357
15928.0,-0.050452226222243254
15936.0,-0.04844297099000727
15944.0,-0.0499633361301733
15952.0,-0.06420344929308311
15960.0,-0.09135301184817247
15968.0,-0.06994336799047614
15976.0,0.16155724182526868
15984.0,0.7173135439022706
15992.0,1.2784971264034628
16000.0,1.444748861018295
16008.0,1.141034694675408
16016.0,0.5156709380243069
16024.0,0.04870500033954052
16032.0,-0.09215044933163366
16040.0,-0.08263615892627492
16048.0,-0.05390380527064247
16056.0,-0.041108543154577126
16064.0,-0.0394007286769264
16072.0,-0.04043844755975567
16080.0,-0.04118857803624433
16088.0,-0.04224869169470006
16096.0,-0.04477920575451365
16104.0,-0.047196346317601855
16112.0,-0.04735572240054022
16120.0,-0.044696212410545354
16128.0,-0.04283312996822569
16136.0,-0.0430216210301317
16144.0,-0.04366740794872301
16152.0,-0.0447342222227307
16160.0,-0.043220861692380104
16168.0,-0.041373334320839644
16176.0,-0.04092264438868558
16184.0,-0.043744833147284654
16192.0,-0.05098349395060613
16200.0,-0.060085726836598324
16208.0,-0.06404541970255571
16216.0,-0.06486053749863821
16224.0,-0.06448660499424846
16232.0,-0.061382959480818275
16240.0,-0.057707054586398604
16248.0,-0.049278950020281695
16256.0,-0.041797089308486524
16264.0,-0.04105318900340556
16272.0,-0.039935341047408715
16280.0,-0.0374891236368815
16288.0,-0.03551596001542369
16296.0,-0.03444843553527488
16304.0,-0.03415850051427154
16312.0,-0.03218323772913764
16320.0,-0.03044795544277766
16328.0,-0.02965444075689236
16336.0,-0.02929487670028613
16344.0,-0.028994100331665367
16352.0,-0.028654261591160617
16360.0,-0.02829173559469013
16368.0,-0.027923286392477837
16376.0,-0.027524963889576842
16384.0,-0.0270433571033821
16392.0,-0.026517376471791403
16400.0,-0.026383880704482145
16408.0,-0.02768477620593934
16416.0,-0.030887862540814336
16424.0,-0.032884950950271746
16432.0,-0.03141121237696175
16440.0,-0.027840255521138984
16448.0,-0.0248802151488752
16456.0,-0.024182237279368187
16464.0,-0.025535693860848637
16472.0,-0.027727108149799444
16480.0,-0.029037687236447177
16488.0,-0.030176593328534097
16496.0,-0.02995892538953187
16504.0,-0.026781228735373377
16512.0,-0.023196882567709572
16520.0,-0.021992466726999768
16528.0,-0.023151458990456147
16536.0,-0.025497668739314288
16544.0,-0.026241430759571457
16552.0,-0.025061772401469465
16560.0,-0.022444188915335207
16568.0,-0.020845893633392766
16576.0,-0.020372477202823567
16584.0,-0.02029143381428292
16592.0,-0.020214891349234685
16600.0,-0.020059975467759006
16608.0,-0.019840087861757175
16616.0,-0.01963105048383046
16624.0,-0.01969542080600777
16632.0,-0.020489852203209997
16640.0,-0.021846294049966256
16648.0,-0.02165271629706809
16656.0,-0.021646383415924654
16664.0,-0.026005408407306158
16672.0,-0.03305264568839668
16680.0,-0.038483789596104004
16688.0,-0.038677369387873195
16696.0,-0.03408256803416032
16704.0,-0.029450141101822497
16712.0,-0.023234580232163727
16720.0,-0.01903738355424174
16728.0,-0.017874318209372717
16736.0,-0.01790696416833641
16744.0,-0.018078022993458003
16752.0,-0.01851239642282102
16760.0,-0.019875923961214906
16768.0,-0.02176378906227863
16776.0,-0.022493682779712778
16784.0,-0.02364311982245727
16792.0,-0.02409306806556932
16800.0,-0.026594941149321073
16808.0,-0.0334693125878265
16816.0,-0.03111862612479646
16824.0,0.01810239589444606
16832.0,0.16262820603810263
16840.0,0.38314464210461957
16848.0,0.49339771683627137
16856.0,0.3940661160441172
16864.0,0.1584076321271767
16872.0,0.0019494300499867253
16880.0,-0.037965920232609904
16888.0,-0.031738819348552334
16896.0,-0.023758353392800424
16904.0,-0.023301960321952368
16912.0,-0.023045881564421986
16920.0,-0.020786989594451532
16928.0,-0.020661495965349323
16936.0,-0.02142516625597906
16944.0,-0.021435699057287025
16952.0,-0.023085876633805263
16960.0,-0.025378923494833887
16968.0,-0.02705285831243371
16976.0,-0.025090676896409817
16984.0,-0.02136913644062591
16992.0,-0.01992683760292488
17000.0,-0.02360122038322468
17008.0,-0.030115508628181405
17016.0,-0.032967178932457916
17024.0,-0.0320932387814064
17032.0,-0.03139647851745882
17040.0,-0.034904863782891274
17048.0,-0.03964732630576288
17056.0,-0.039153170066235414
17064.0,-0.03769618895125528
17072.0,-0.043318862075247905
17080.0,-0.04980455897445487
17088.0,-0.047640058964014444
17096.0,-0.039370341161572335
17104.0,-0.03504901563537821
17112.0,-0.03374432012698395
17120.0,-0.032995825809613015
17128.0,-0.030739656361345846
17136.0,-0.02822302933345806
17144.0,-0.024653503633706473
17152.0,-0.022358194079898516
17160.0,-0.021940193885892714
17168.0,-0.022252177998274808
17176.0,-0.02258037810196162
17184.0,-0.022875481400901527
17192.0,-0.02357225191300728
17200.0,-0.025234953660274534
17208.0,-0.02708906606089048
17216.0,-0.02644875789660512
17224.0,-0.025039995745631354
17232.0,-0.024615009635465777
17240.0,-0.024850180127876778
17248.0,-0.025250464573761795
17256.0,-0.025617950531155592
17264.0,-0.025920281153981338
17272.0,-0.02616571554850329
17280.0,-0.026443328135899256
17288.0,-0.02708256404791102
17296.0,-0.028599464489596785
17304.0,-0.030583273131717343
17312.0,-0.030769820284376064
17320.0,-0.0310871561218082
17328.0,-0.032924080741011996
17336.0,-0.03370708963701017
17344.0,-0.03281393409883376
17352.0,-0.030828951488396057
17360.0,-0.029866403358750213
17368.0,-0.029770924521628994
17376.0,-0.030492342938952307
17384.0,-0.03334788513661166
17392.0,-0.03931530887111665
17400.0,-0.044253790861988725
17408.0,-0.04229377273955746
17416.0,-0.03768912017061475
17424.0,-0.034832367555153204
17432.0,-0.03697320721677342
17440.0,-0.043767153593927854
17448.0,-0.050326961623284136
17456.0,-0.049741618031547
17464.0,-0.04296539658439155
17472.0,-0.03683894482214653
17480.0,-0.03494033875705134
17488.0,-0.03526994152143131
17496.0,-0.03601064626614014
17504.0,-0.036601213318217196
17512.0,-0.03695913102816061
17520.0,-0.03680939845932006
17528.0,-0.03572812491696857
17536.0,-0.03460938121211457
17544.0,-0.03884089725862762
17552.0,-0.05893346800655238
17560.0,-0.0938211713838292
17568.0,-0.08200909855522479
17576.0,0.13591383340151417
17584.0,0.6811012800719543
17592.0,1.2167952953988876
17600.0,1.2711794450603229
17608.0,0.804833498749403
17616.0,0.2252145177579365
17624.0,-0.05152004731170613
17632.0,-0.09389987178014578
17640.0,-0.06894983311992658
17648.0,-0.047361274819890414
17656.0,-0.04157496182811992
17664.0,-0.04694568701032349
17672.0,-0.05163326422937942
17680.0,-0.04838578991170621
17688.0,-0.04404096049406436
17696.0,-0.043576017536369915
17704.0,-0.044245840080969316
17712.0,-0.044578093777076874
17720.0,-0.044687807292721406
17728.0,-0.04570191571746626
17736.0,-0.04731749891024094
17744.0,-0.045829856783506415
17752.0,-0.04566269092174308
17760.0,-0.047015537932318614
17768.0,-0.047963567084373236
17776.0,-0.05164294476235987
17784.0,-0.05561243887233229
17792.0,-0.0552655454105964
17800.0,-0.055563880045614716
17808.0,-0.05699654363702061
17816.0,-0.06346937213424027
17824.0,-0.07033863688984338
17832.0,-0.0694570036572459
17840.0,-0.06774927167038153
17848.0,-0.0713644990105229
17856.0,-0.07177202217274606
17864.0,-0.06498454291874996
17872.0,-0.0593842391718577
17880.0,-0.05468805731237597
17888.0,-0.048720470067295574
17896.0,-0.04600854406422372
17904.0,-0.047180350733638715
17912.0,-0.04624492341525729
17920.0,-0.04357789818569498
17928.0,-0.042977763722667574
17936.0,-0.044587356851657385
17944.0,-0.04560399514188464
17952.0,-0.045671929894405904
17960.0,-0.04628387740218956
17968.0,-0.0460181726274721
17976.0,-0.04603575081242683
17984.0,-0.04709986221885692
17992.0,-0.052515502850548464
18000.0,-0.056713491075340884
18008.0,-0.05543184592502673
18016.0,-0.05339701502706178
18024.0,-0.04936974121043782
18032.0,-0.046105277514945316
18040.0,-0.04670382284392859
18048.0,-0.049065477863246464
18056.0,-0.05242444023546884
18064.0,-0.05559664007120447
18072.0,-0.06075850697137095
18080.0,-0.06881077805748727
18088.0,-0.06708732973615121
18096.0,-0.05527042829490453
18104.0,-0.046802722532486615
18112.0,-0.04535831835353404
18120.0,-0.04764017335521093
18128.0,-0.04968718794358562
18136.0,-0.05107149740113365
18144.0,-0.05334071470938467
18152.0,-0.055194260371797525
18160.0,-0.05705806990621781
18168.0,-0.06161963457053946
18176.0,-0.062409844586632936
18184.0,-0.05709826987275799
18192.0,-0.05360958222708941
18200.0,-0.05567562302825603
18208.0,-0.05881769424128774
18216.0,-0.057588866797226065
18224.0,-0.05438395913559077
18232.0,-0.053233331767809255
18240.0,-0.054660396557697694
18248.0,-0.055516264769941336
18256.0,-0.05436047883035183
18264.0,-0.05148985330956757
18272.0,-0.04983872324220734
18280.0,-0.05083870971463149
18288.0,-0.05404972337080362
18296.0,-0.05544291246601129
18304.0,-0.05131199491321663
18312.0,-0.049851135609253514
18320.0,-0.0619067908332365
18328.0,-0.0917862965590254
18336.0,-0.10389220358244111
18344.0,0.027642638809435
18352.0,0.4793307580138151
18360.0,1.1095058164376186
18368.0,1.444854704048492
18376.0,1.3332635855841641
18384.0,0.8141087384500609
18392.0,0.21766506444126454
18400.0,-0.06273793938251915
18408.0,-0.10176857788085601
18416.0,-0.07452367343253354
18424.0,-0.056325603849680106
18432.0,-0.05238521474356052
18440.0,-0.05185120460768085
18448.0,-0.05145067834097272
18456.0,-0.05346464340115617
18464.0,-0.05613253986629491
18472.0,-0.05645121711427621
18480.0,-0.054602695968674515
18488.0,-0.05430630240898797
18496.0,-0.052400455441086756
18504.0,-0.049502300074469444
18512.0,-0.04971522970686125
18520.0,-0.052685140103911496
18528.0,-0.05338256461643677
18536.0,-0.05294475312737913
18544.0,-0.05376709572874318
18552.0,-0.05558381345007621
18560.0,-0.06032445031775894
18568.0,-0.0606099458535418
18576.0,-0.062435478113457586
18584.0,-0.06987386928359304
18592.0,-0.07260254770395537
18600.0,-0.07471187082008493
18608.0,-0.07543266995319503
18616.0,-0.07451989958582954
18624.0,-0.07289649891861885
18632.0,-0.06382836949276326
18640.0,-0.053917060907947026
18648.0,-0.04738109362149765
18656.0,-0.04340102820218178
18664.0,-0.04222943642529373
18672.0,-0.04217964879719375
18680.0,-0.04218227340449751
18688.0,-0.041967129834767254
18696.0,-0.04165590368935645
18704.0,-0.04172964415873819
18712.0,-0.04306337108230719
18720.0,-0.04573039725021703
18728.0,-0.04718989330888106
18736.0,-0.046613236828328346
18744.0,-0.04506079870051972
18752.0,-0.04231421292164108
18760.0,-0.04039923914437839
18768.0,-0.04054407200980424
18776.0,-0.04344938581457193
18784.0,-0.048167842936982105
18792.0,-0.04946320210603559
18800.0,-0.047351725960943794
18808.0,-0.045205234078665724
18816.0,-0.044665872877036196
18824.0,-0.045702052234642486
18832.0,-0.04778597596400121
18840.0,-0.04816995040527694
18848.0,-0.049020768685632196
18856.0,-0.048497195009798315
18864.0,-0.045442392485507625
18872.0,-0.04253500286813648
18880.0,-0.04369442162959664
18888.0,-0.046690586328759213
18896.0,-0.047134155527694566
18904.0,-0.04376637589605417
18912.0,-0.04228367965130878
18920.0,-0.04417863831843469
18928.0,-0.04519919723437971
18936.0,-0.0431810722172144
18944.0,-0.04068374869019173
18952.0,-0.04105886451679547
18960.0,-0.04539530311477962
18968.0,-0.050887633876914855
18976.0,-0.05217495221083243
18984.0,-0.05141839901204044
18992.0,-0.04711785274220241
19000.0,-0.042617925019805325
19008.0,-0.04347263843155661
19016.0,-0.04917718645289081
19024.0,-0.05454615831547207
19032.0,-0.05238237014997153
19040.0,-0.04607337362969668
19048.0,-0.044289169614370356
19056.0,-0.046201640513084966
19064.0,-0.049808264632047794
19072.0,-0.053580193084090164
19080.0,-0.05412243672375961
19088.0,-0.054528414279544274
19096.0,-0.05633825538762957
19104.0,-0.05558721526360139
19112.0,-0.04975475693198689
19120.0,-0.04683597928339918
19128.0,-0.04719109290030473
19136.0,-0.04724449542140292
19144.0,-0.04554242529335975
19152.0,-0.04385117690666144
19160.0,-0.04388292387566008
19168.0,-0.04533528331933824
19176.0,-0.04617727288282307
19184.0,-0.04538358557579558
19192.0,-0.04801849663046097
19200.0,-0.05826832840047285
19208.0,-0.08163538199641697
19216.0,-0.10605428233134248
19224.0,-0.030759831999783813
19232.0,0.33779779566944335
19240.0,0.9692230646841349
19248.0,1.3970047862905903
19256.0,1.344161906542554
19264.0,0.8386435355712274
19272.0,0.23831416564959607
19280.0,-0.051663645133542005
19288.0,-0.09520314820115625
19296.0,-0.06744646622476182
19304.0,-0.0462347682973512
19312.0,-0.040806382550825436
19320.0,-0.0428141566516153
19328.0,-0.04536341325141854
19336.0,-0.045112797785635754
19344.0,-0.04496604555352356
19352.0,-0.04507841209809893
19360.0,-0.044764780500184946
19368.0,-0.046584235189360494
19376.0,-0.0471614542859257
19384.0,-0.04514478439371879
19392.0,-0.046045972157211276
19400.0,-0.04913856408317904
19408.0,-0.050549907392876216
19416.0,-0.04626094881374543
19424.0,-0.043211795180303755
19432.0,-0.04267862179478532
19440.0,-0.04489793402860154
19448.0,-0.051018723072475625
19456.0,-0.06180350638887305
19464.0,-0.07516611389416601
19472.0,-0.07974159911085467
19480.0,-0.07402853120223787
19488.0,-0.06960440524126402
19496.0,-0.07229015321881437
19504.0,-0.0697672027304119
19512.0,-0.05404748866335189
19520.0,-0.040823586105391024
19528.0,-0.039034622093438005
19536.0,-0.040757015906936145
19544.0,-0.040442811132880487
19552.0,-0.03968407056720468
19560.0,-0.04056634840853682
19568.0,-0.04133672251606964
19576.0,-0.0414387703726164
19584.0,-0.03973728622523341
19592.0,-0.03794084780319286
19600.0,-0.03845079967473076
19608.0,-0.038865849371093004
19616.0,-0.038908717290590006
19624.0,-0.03866410681679408
19632.0,-0.03956447993930226
19640.0,-0.04079712624050678
19648.0,-0.04025126171379277
19656.0,-0.043797097066290404
19664.0,-0.04764438037727788
19672.0,-0.04410947974186414
19680.0,-0.04173530266175068
19688.0,-0.04351409345078707
19696.0,-0.047585757031985365
19704.0,-0.04989843042050288
19712.0,-0.04821785071849572
19720.0,-0.04445408377182145
19728.0,-0.04246904071172464
19736.0,-0.04131676249977909
19744.0,-0.03959677892200206
19752.0,-0.03846378533821357
19760.0,-0.04013167889130777
19768.0,-0.043758810417018866
19776.0,-0.04710990092714861
19784.0,-0.05183152814052071
19792.0,-0.05806787801312051
19800.0,-0.05414195284825041
19808.0,-0.045215461398629704
19816.0,-0.041206550218880436
19824.0,-0.0400495313322572
19832.0,-0.039340694846369456
19840.0,-0.038698287469449144
19848.0,-0.041053666226141365
19856.0,-0.04769111638017608
19864.0,-0.05366470927396225
19872.0,-0.05341244491030828
19880.0,-0.046317638843881584
19888.0,-0.03919086423071574
19896.0,-0.038161922321447474
19904.0,-0.042614183162117285
19912.0,-0.047938629238427774
19920.0,-0.05062797982041045
19928.0,-0.0524103422489453
19936.0,-0.05568806608805682
19944.0,-0.05722444531225492
19952.0,-0.05606625504916343
19960.0,-0.05738650912575085
19968.0,-0.060435482213728034
19976.0,-0.05617642505546229
19984.0,-0.04897243583324806
19992.0,-0.045937061087859554
20000.0,-0.043840311063911654
20008.0,-0.04240722517884207
20016.0,-0.04343134869492653
20024.0,-0.04418427735951898
20032.0,-0.04443849663912858
20040.0,-0.04404751177397937
20048.0,-0.04481699662864703
20056.0,-0.04723072674270141
20064.0,-0.049405675152399166
20072.0,-0.052859143971089186
20080.0,-0.06765101289871252
20088.0,-0.09858935625947382
20096.0,-0.08928644350679024
20104.0,0.12116202843527481
20112.0,0.66281598707773
20120.0,1.2176094708897125
20128.0,1.3488039269236443
20136.0,0.9981510272669313
20144.0,0.3992239130017705
20152.0,0.009397151113696078
20160.0,-0.09173031540424408
20168.0,-0.07563625590021779
20176.0,-0.050559764223849855
20184.0,-0.04160569192785658
20192.0,-0.043294390674218544
20200.0,-0.04731757404561834
20208.0,-0.05037388602572266
20216.0,-0.050796237507395654
20224.0,-0.04959454158252208
20232.0,-0.04919607727701202
20240.0,-0.05009788814285612
20248.0,-0.0514526634311176
20256.0,-0.05267027255083815
20264.0,-0.05443858540312003
20272.0,-0.05580383784015537
20280.0,-0.05477471631512559
20288.0,-0.05072970445234876
20296.0,-0.047922126691653535
20304.0,-0.04983807516080829
20312.0,-0.05691747232927133
20320.0,-0.06241765182318376
20328.0,-0.06255626989366098
20336.0,-0.06010638383317688
20344.0,-0.060769768596385776
20352.0,-0.06215804640092051
20360.0,-0.05872406921514795
20368.0,-0.055187420650470796
20376.0,-0.05680896427626599
20384.0,-0.06091785355508984
20392.0,-0.06620235783355462
20400.0,-0.06454001174958045
20408.0,-0.05605606651295169
20416.0,-0.04776173508513503
20424.0,-0.04546521866266262
20432.0,-0.046330395532974
20440.0,-0.04408352823791214
20448.0,-0.0428732130352791
20456.0,-0.04359018909566401
20464.0,-0.04374525208970385
20472.0,-0.04507245533190443
20480.0,-0.04593032533654647
20488.0,-0.04408180932382938
20496.0,-0.04123840140678124
20504.0,-0.04049598679871931
20512.0,-0.04298332087381523
20520.0,-0.048117505616836316
20528.0,-0.05026822028749814
20536.0,-0.04885816862298681
20544.0,-0.04880468151130028
20552.0,-0.04729694608112183
20560.0,-0.04580039350196628
20568.0,-0.04509470436728447
20576.0,-0.0452794759921986
20584.0,-0.04780764165545674
20592.0,-0.05023457697082666
20600.0,-0.05072664313776498
20608.0,-0.05008384046520227
20616.0,-0.04857287745425236
20624.0,-0.046331281890085514
20632.0,-0.04726153666011987
20640.0,-0.047728589001348985
20648.0,-0.047612419493061116
20656.0,-0.049615332723674355
20664.0,-0.05101271951839024
20672.0,-0.051911006542802604
20680.0,-0.052075200248776536
20688.0,-0.050159443805230144
20696.0,-0.04863918111747379
20704.0,-0.04856154144640437
20712.0,-0.047991352284674244
20720.0,-0.0460657686285311
20728.0,-0.04768023332637097
20736.0,-0.052457329498704276
20744.0,-0.05456081945173917
20752.0,-0.052602210645572384
20760.0,-0.047339167111015504
20768.0,-0.04381298915634823
20776.0,-0.043319164287135024
20784.0,-0.04478820714496584
20792.0,-0.04681383491199942
20800.0,-0.04716739247544484
20808.0,-0.04799087908905752
20816.0,-0.0494217628609509
20824.0,-0.04971447786911905
20832.0,-0.05003538892864422
20840.0,-0.05115624389264744
20848.0,-0.0590425646792976
20856.0,-0.08464284310856843
20864.0,-0.09999524254472965
20872.0,0.023729813614840698
20880.0,0.4709569355560818
20888.0,1.0928373364223103
20896.0,1.383514669341742
20904.0,1.1856959850054818
20912.0,0.6085158462103741
20920.0,0.10038619310948085
20928.0,-0.08257077982233967
20936.0,-0.08698216215274468
20944.0,-0.058203546525172865
20952.0,-0.04439885545242098
20960.0,-0.04513515541999936
20968.0,-0.05001574074872078
20976.0,-0.05254842163633608
20984.0,-0.050949697277290436
20992.0,-0.048573946219742294
21000.0,-0.04690905743607366
21008.0,-0.04745820450355886
21016.0,-0.05212340937943549
21024.0,-0.05590492762461494
21032.0,-0.05866678296114408
21040.0,-0.060177461277915234
21048.0,-0.055265569884825824
21056.0,-0.051328209891707235
21064.0,-0.049502546139841126
21072.0,-0.047082508973213325
21080.0,-0.04975088394964067
21088.0,-0.057571000678391854
21096.0,-0.06447045235952469
21104.0,-0.06777238171261644
21112.0,-0.070760785291876
21120.0,-0.07056088268851349
21128.0,-0.06761301900955366
21136.0,-0.06738888652427236
21144.0,-0.0702374923848844
21152.0,-0.06959727141631307
21160.0,-0.07088641722486512
21168.0,-0.0680659463522067
21176.0,-0.0583845176771155
21184.0,-0.05041143988067413
21192.0,-0.04539927303986118
21200.0,-0.04169409436278157
21208.0,-0.04272551161757111
21216.0,-0.04503463646205962
21224.0,-0.042255748872261585
21232.0,-0.03961812265284569
21240.0,-0.03836290365249115
21248.0,-0.03655257736666417
21256.0,-0.03619016626002946
21264.0,-0.03745730590192747
21272.0,-0.03809660744236144
21280.0,-0.03871768645479793
21288.0,-0.042265183489694366
21296.0,-0.04367793666205168
21304.0,-0.04063427898052425
21312.0,-0.04044959532602325
21320.0,-0.04202391629452914
21328.0,-0.04076633275480845
21336.0,-0.042388274985944684
21344.0,-0.052388244358729935
21352.0,-0.059377939378487385
21360.0,-0.054734856582687716
21368.0,-0.04655974123370883
21376.0,-0.04025013576298439
21384.0,-0.03959377406579853
21392.0,-0.04253822463934447
21400.0,-0.04468912967888901
21408.0,-0.045364014732153665
21416.0,-0.04592210475544381
21424.0,-0.0486202798738124
21432.0,-0.05118062229726122
21440.0,-0.04984337923353204
21448.0,-0.04514519089979616
21456.0,-0.04145891430269948
21464.0,-0.04534131056486348
21472.0,-0.05215550883608666
21480.0,-0.05097884261622458
21488.0,-0.04960617183503271
21496.0,-0.051591498662874644
21504.0,-0.04916574574877018
21512.0,-0.044538801670752956
21520.0,-0.044134148127197126
21528.0,-0.048907039842115564
21536.0,-0.052782888019049005
21544.0,-0.05479608728128241
21552.0,-0.05436328542684521
21560.0,-0.05371917284113905
21568.0,-0.05062891640568368
21576.0,-0.04357719928631987
21584.0,-0.03870092842611438
21592.0,-0.037712065389917254
21600.0,-0.03902943285645002
21608.0,-0.039298256083545424
21616.0,-0.03966371249533485
21624.0,-0.042528284410041264
21632.0,-0.045009661021409755
21640.0,-0.04624269620830893
21648.0,-0.04414770866064544
21656.0,-0.04209339353704383
21664.0,-0.05433078475416377
21672.0,-0.081258373340557
21680.0,-0.08867612452408655
21688.0,0.04790892132660006
21696.0,0.4991205625153962
21704.0,1.1030786407612965
21712.0,1.3561053332835455
21720.0,1.0695592420799065
21728.0,0.46377297657525174
21736.0,0.03625880941364409
21744.0,-0.08544071470066453
21752.0,-0.07304812169761454
21760.0,-0.04613695800439898
21768.0,-0.035491872005412345
21776.0,-0.03693266149906436
21784.0,-0.04199723503054234
21792.0,-0.04351101887537713
21800.0,-0.0429076386716757
21808.0,-0.040610386234189014
21816.0,-0.03855929678174507
21824.0,-0.0411616401497636
21832.0,-0.045641510441327186
21840.0,-0.04701260657729522
21848.0,-0.04361892101548991
21856.0,-0.042472570720540524
21864.0,-0.04593310251585622
21872.0,-0.0471828870766821
21880.0,-0.044265989641785713
21888.0,-0.04352305459187368
21896.0,-0.047044951947992686
21904.0,-0.0520192178021949
21912.0,-0.05417279083428053
21920.0,-0.055860988469858465
21928.0,-0.05626001642525659
21936.0,-0.05819577331055419
21944.0,-0.06420874374586992
21952.0,-0.06638822732833817
21960.0,-0.06330641486901217
21968.0,-0.059530438459979254
21976.0,-0.05779702709513161
21984.0,-0.0557814056205576
21992.0,-0.054854072442754136
22000.0,-0.05477729823314463
22008.0,-0.04964581918954456
22016.0,-0.04303172527993046
22024.0,-0.03939564554632555
22032.0,-0.039229284327655004
22040.0,-0.03863965648415759
22048.0,-0.03518841658323723
22056.0,-0.03203779930845002
22064.0,-0.032144413071467655
22072.0,-0.03479377343515867
22080.0,-0.03620452608602757
22088.0,-0.034239827539450304
22096.0,-0.03139157873477794
22104.0,-0.031970152161902944
22112.0,-0.03796243108471262
22120.0,-0.045558366995931784
22128.0,-0.04520203277165169
22136.0,-0.03973121990970747
22144.0,-0.03736358985747484
22152.0,-0.03878563022526476
22160.0,-0.037489729066178146
22168.0,-0.03555960535073775
22176.0,-0.03773119477438444
22184.0,-0.04048767030934429
22192.0,-0.041406570478487253
22200.0,-0.04006000687353375
22208.0,-0.039518178279688454
22216.0,-0.041083377014017916
22224.0,-0.04103422144651725
22232.0,-0.03930723287716156
22240.0,-0.04053519760409559
22248.0,-0.04220526620504348
22256.0,-0.04197198041164857
22264.0,-0.04160437798664739
22272.0,-0.03969027603037039
22280.0,-0.03970583746642273
22288.0,-0.04142303157778204
22296.0,-0.042923962725608056
22304.0,-0.041581669562078996
22312.0,-0.03721564417543476
22320.0,-0.03497463662950244
22328.0,-0.03700838601240953
22336.0,-0.040295638379471414
22344.0,-0.041659327646890225
22352.0,-0.04582253628911
22360.0,-0.048809636049304404
22368.0,-0.04544529553741349
22376.0,-0.04201303964709888
22384.0,-0.042168003849885144
22392.0,-0.04348453841876997
22400.0,-0.04359705499042417
22408.0,-0.04530044678993968
22416.0,-0.04668509286910738
22424.0,-0.04485408201353977
22432.0,-0.04553276465801321
22440.0,-0.053340966430153215
22448.0,-0.06453155105954037
22456.0,-0.06773753280584853
22464.0,-0.06161142314089308
22472.0,-0.05565484370652389
22480.0,-0.053081172031782094
22488.0,-0.048663714137270754
22496.0,-0.044995284777685
22504.0,-0.047330226243529165
22512.0,-0.04952610902398703
22520.0,-0.048992505575979395
22528.0,-0.04855015211973263
22536.0,-0.047486843713798306
22544.0,-0.046290224564114565
22552.0,-0.043012932097613685
22560.0,-0.042693188624904774
22568.0,-0.0523589431967706
22576.0,-0.07707509375946066
22584.0,-0.10582892373373756
22592.0,-0.053503626570825365
22600.0,0.2615560252642326
22608.0,0.8744649283979661
22616.0,1.3643159647221927
22624.0,1.4069413229208338
22632.0,0.9877576805177585
22640.0,0.3579581787763766
22648.0,-0.012331478961316766
22656.0,-0.09367850816203903
22664.0,-0.07116702628148112
22672.0,-0.046627171031952984
22680.0,-0.039426003708330236
22688.0,-0.040631182653142604
22696.0,-0.0417378947725011
22704.0,-0.043232033744598414
22712.0,-0.0444191177128794
22720.0,-0.045089939610500576
22728.0,-0.043828744810111446
22736.0,-0.04335377426981219
22744.0,-0.045512783108597264
22752.0,-0.04725102970919237
22760.0,-0.04538035672273902
22768.0,-0.04260528632874982
22776.0,-0.041693174920060055
22784.0,-0.043028448395082894
22792.0,-0.0458827279161009
22800.0,-0.04762359052930405
22808.0,-0.049254931149788315
22816.0,-0.05338733131152587
22824.0,-0.05643213535384269
22832.0,-0.05184209539832784
22840.0,-0.04476192551112854
22848.0,-0.04886443923669791
22856.0,-0.05739793102209637
22864.0,-0.056483756034920486
22872.0,-0.0545172943164353
22880.0,-0.05408462121860532
22888.0,-0.052296409917954575
22896.0,-0.048848390971744274
22904.0,-0.04434511960816791
22912.0,-0.039447102082069314
22920.0,-0.03502049260995116
22928.0,-0.03227865309646219
22936.0,-0.03235582048249611
22944.0,-0.03385499790742805
22952.0,-0.03355261118906197
22960.0,-0.03260381789017825
22968.0,-0.03334161650195078
22976.0,-0.03353485553231248
22984.0,-0.033020475649261964
22992.0,-0.03261163349000756
23000.0,-0.03182069798778791
23008.0,-0.034658294112977044
23016.0,-0.040121537753776575
23024.0,-0.04132703719565371
23032.0,-0.0388584072928383
23040.0,-0.03561436349170859
23048.0,-0.034349899186616864
23056.0,-0.03723041128488969
23064.0,-0.04013292665600193
23072.0,-0.03945976869009694
23080.0,-0.03658269293396312
23088.0,-0.034289527193972304
23096.0,-0.03173617117623147
23104.0,-0.03350864578428403
23112.0,-0.03849184298664377
23120.0,-0.043764522105063326
23128.0,-0.044281809998962626
23136.0,-0.03763997796372974
23144.0,-0.03203310237903272
23152.0,-0.03300401398426567
23160.0,-0.03688057626930665
23168.0,-0.03825962183189371
23176.0,-0.03562155439311628
23184.0,-0.03419468447145266
23192.0,-0.036247808777858534
23200.0,-0.038372193062295654
23208.0,-0.03895144142719504
23216.0,-0.03780480916971526
23224.0,-0.03676787714620345
23232.0,-0.039469811247572185
23240.0,-0.03977966453148485
23248.0,-0.03762213207164788
23256.0,-0.038561754448562045
23264.0,-0.04165193596626004
23272.0,-0.039939354455230024
23280.0,-0.03584364493709835
23288.0,-0.033988519682798306
23296.0,-0.03742309188414937
23304.0,-0.04417062146633851
23312.0,-0.04630362626193932
23320.0,-0.04335464839005314
23328.0,-0.0393230086057893
23336.0,-0.0372490786308235
23344.0,-0.034727189886518316
23352.0,-0.03212205646045281
23360.0,-0.033724656940660146
23368.0,-0.03860396279058505
23376.0,-0.04367802296982259
23384.0,-0.04784191196855271
23392.0,-0.049087036232557425
23400.0,-0.04902187076724077
23408.0,-0.04964768859472703
23416.0,-0.04381319660499773
23424.0,-0.04009739084362245
23432.0,-0.04510904604133336
23440.0,-0.05274430202040399
23448.0,-0.05511410790316513
23456.0,-0.05226746773022671
23464.0,-0.04900451167400834
23472.0,-0.04637863511885907
23480.0,-0.04358953963027225
23488.0,-0.045915830728739296
23496.0,-0.05214083229186473
23504.0,-0.05379449045401413
23512.0,-0.051382893474346616
23520.0,-0.04783558459653283
23528.0,-0.04552150086583166
23536.0,-0.04338137022914388
23544.0,-0.039930939880357987
23552.0,-0.04099597034683742
23560.0,-0.061499527798659664
23568.0,-0.09477186748299672
23576.0,-0.06105978883677084
23584.0,0.21572315345193283
23592.0,0.8168919524987251
23600.0,1.3299211515243812
23608.0,1.3350701383695582
23616.0,0.8330342433895063
23624.0,0.2314490196987992
23632.0,-0.0501608915493485
23640.0,-0.09013784445190112
23648.0,-0.062453868843100294
23656.0,-0.04015851266867703
23664.0,-0.033259595498684305
23672.0,-0.033570947034725816
23680.0,-0.03482650959983214
23688.0,-0.035241857111794346
23696.0,-0.03493025016669763
23704.0,-0.03444320550080993
23712.0,-0.03497729020947007
23720.0,-0.03865400475516396
23728.0,-0.04550349820439747
23736.0,-0.04641470269228131
23744.0,-0.03922700099352476
23752.0,-0.03428458734747747
23760.0,-0.03373862395206704
23768.0,-0.0368239850357897
23776.0,-0.04148295520630339
23784.0,-0.044199498889872346
23792.0,-0.048665533719508214
23800.0,-0.05907476237468012
23808.0,-0.06828953469100921
23816.0,-0.06471736299763067
23824.0,-0.05754949670823758
23832.0,-0.056976872254275716
23840.0,-0.05930474691046451
23848.0,-0.05732212181367415
23856.0,-0.05010558667683382
23864.0,-0.045383445479995885
23872.0,-0.04288500762448827
23880.0,-0.03989295921031408
23888.0,-0.03815646172382735
23896.0,-0.039156288105321256
23904.0,-0.03954746413845728
23912.0,-0.03739643072829647
23920.0,-0.03511602631232415
23928.0,-0.0344523570212902
23936.0,-0.033794627227775376
23944.0,-0.03400421403571175
23952.0,-0.03306520236969467
23960.0,-0.031222788578333542
23968.0,-0.030328904786467485
23976.0,-0.030157190587805995
23984.0,-0.030186968418043258
23992.0,-0.03018261394638424
24000.0,-0.030087470766722316
24008.0,-0.029925617929940543
24016.0,-0.029921267278961064
24024.0,-0.030701565599524454
24032.0,-0.03286493368758558
24040.0,-0.03492333419963395
24048.0,-0.035438238962197714
24056.0,-0.03723177741175896
24064.0,-0.04162608362814474
24072.0,-0.039770346718687316
24080.0,-0.034543411757236395
24088.0,-0.03552846156506821
24096.0,-0.04173291204228301
24104.0,-0.040979520184909406
24112.0,-0.03424186533307312
24120.0,-0.030551749582270027
24128.0,-0.029869818164272095
24136.0,-0.03020254956736611
24144.0,-0.030834243255809655
24152.0,-0.03211593178775974
24160.0,-0.03385916947996517
24168.0,-0.03413249081046149
24176.0,-0.035140315967630474
24184.0,-0.03850591217253756
24192.0,-0.04229211509151755
24200.0,-0.041440342961855954
24208.0,-0.0377255716322692
24216.0,-0.03433206231696219
24224.0,-0.03235012563585338
24232.0,-0.03187882898317903
24240.0,-0.032129874958280714
24248.0,-0.03343424783102036
24256.0,-0.036894818291806
24264.0,-0.04103297605431067
24272.0,-0.04219375134580258
24280.0,-0.04232178033355933
24288.0,-0.04073740565421016
24296.0,-0.03651777663338972
24304.0,-0.034353592286171616
24312.0,-0.036099838636795695
24320.0,-0.041440417217745475
24328.0,-0.046828205686807664
24336.0,-0.051768097089571856
24344.0,-0.0531572354947657
24352.0,-0.039062943263994135
24360.0,-0.0037254773633797742
24368.0,0.028053370932859128
24376.0,0.0015781469167459685
24384.0,-0.031364238576940255
24392.0,-0.04433935259419751
24400.0,-0.047694544800299714
24408.0,-0.04683149490428263
24416.0,-0.04454961621736993
24424.0,-0.044086500162845356
24432.0,-0.04175490591883523
24440.0,-0.03878676007988005
24448.0,-0.03859944196887304
24456.0,-0.04279350642520903
24464.0,-0.05096373799756821
24472.0,-0.06757487764520534
24480.0,-0.09494375133020025
24488.0,-0.06922947033313144
24496.0,0.1554377887085314
24504.0,0.6696419785357413
24512.0,1.1663564039659224
24520.0,1.1873294691789882
24528.0,0.7043833266003231
24536.0,0.1676787380393241
24544.0,-0.06294867722464105
24552.0,-0.0872049030166266
24560.0,-0.061330794102653324
24568.0,-0.045359531279573914
24576.0,-0.040950051574590245
24584.0,-0.04201512249635893
24592.0,-0.043500944290810195
24600.0,-0.04231653673694203
24608.0,-0.040969684921528235
24616.0,-0.04038082614971617
24624.0,-0.040319802815175776
24632.0,-0.04115629346622035
24640.0,-0.043855293727123504
24648.0,-0.04722973733062146
24656.0,-0.04579757285688043
24664.0,-0.042207140290277695
24672.0,-0.040288129837311164
24680.0,-0.03974925874115109
24688.0,-0.040858451139606455
24696.0,-0.04574984258068078
24704.0,-0.054242040997360304
24712.0,-0.05583337460960556
24720.0,-0.048994261661815156
24728.0,-0.044669832575260374
24736.0,-0.0435076273016036
24744.0,-0.04643946554401764
24752.0,-0.0537584170699476
24760.0,-0.06239423822772511
24768.0,-0.06366197404552502
24776.0,-0.059043271624473814
24784.0,-0.055956452768824036
24792.0,-0.053563597933407356
24800.0,-0.047531637224203914
24808.0,-0.0424099848348875
24816.0,-0.04084579128923325
24824.0,-0.040991858230196465
24832.0,-0.04138635360798667
24840.0,-0.04161798081191047
24848.0,-0.04173089377582078
24856.0,-0.04181753768235743
24864.0,-0.04191901305524097
24872.0,-0.04204317991683115
24880.0,-0.042180242208193816
24888.0,-0.042285741521436895
24896.0,-0.04226730905549094
24904.0,-0.042101869792969614
24912.0,-0.042262805588652655
24920.0,-0.044270032821470004
24928.0,-0.04977414232446289
24936.0,-0.05514877604149831
24944.0,-0.05254210736820894
24952.0,-0.04690797205143424
24960.0,-0.045486209419531326
24968.0,-0.04668997462217879
24976.0,-0.04607624359893454
24984.0,-0.044862825374787654
24992.0,-0.04448554601134359
25000.0,-0.044652989942872
25008.0,-0.04495545827761269
25016.0,-0.04523466912419231
25024.0,-0.045458829870310136
25032.0,-0.04559923160397435
25040.0,-0.04566421980838476
25048.0,-0.04594684345593732
25056.0,-0.04731911205161525
25064.0,-0.05061677997328154
25072.0,-0.05329912991819272
25080.0,-0.051175101705605464
25088.0,-0.04988750930225173
25096.0,-0.051890567286565194
25104.0,-0.05444999673729901
25112.0,-0.05712770553425172
25120.0,-0.058675363521713444
25128.0,-0.05537047770011495
25136.0,-0.05420626332805835
25144.0,-0.05540851469811529
25152.0,-0.05294334448579446
25160.0,-0.050378776280071515
25168.0,-0.0496760950548826
25176.0,-0.04996029818546896
25184.0,-0.05043232029605913
25192.0,-0.05069899452390752
25200.0,-0.050350227159396306
25208.0,-0.049079155140656645
25216.0,-0.048373524820029504
25224.0,-0.05460896045433738
25232.0,-0.07776891079171384
25240.0,-0.10943690064510472
25248.0,-0.06651531097372547
25256.0,0.23343954006600706
25264.0,0.834263388865388
25272.0,1.2951948971191012
25280.0,1.2784209214491773
25288.0,0.8048969394112254
25296.0,0.22493883618637767
25304.0,-0.05856836234820782
25312.0,-0.10267681451667748
25320.0,-0.07649267590613372
25328.0,-0.05606974148126881
25336.0,-0.05045927692517225
25344.0,-0.051186539339910436
25352.0,-0.05225419204310846
25360.0,-0.05169789318781194
25368.0,-0.04985862881852382
25376.0,-0.049635118438555496
25384.0,-0.05122664357556964
25392.0,-0.05285556161461211
25400.0,-0.055714233955118805
25408.0,-0.059750192785426426
25416.0,-0.06134494602296988
25424.0,-0.0625197117068584
25432.0,-0.05989006596467394
25440.0,-0.05460319731540699
25448.0,-0.05203733778008733
25456.0,-0.05366754471419012
25464.0,-0.05955361186759428
25472.0,-0.06954292101983224
25480.0,-0.07639188990517655
25488.0,-0.0653994331044357
25496.0,-0.0393684132193107
25504.0,-0.023403950030280788
25512.0,-0.02673778246876347
25520.0,-0.04851261097740693
25528.0,-0.06161078568360609
25536.0,-0.06266481326956255
25544.0,-0.05902184445796433
25552.0,-0.05371754027202983
25560.0,-0.05160975088718901
25568.0,-0.053080777024658174
25576.0,-0.05688225290161613
25584.0,-0.05789508282859858
25592.0,-0.05427964046403252
25600.0,-0.05180686570347575
25608.0,-0.052119475341762575
25616.0,-0.055136561558027056
25624.0,-0.05835439889492108
25632.0,-0.05637313590812435
25640.0,-0.05308215629380672
25648.0,-0.05175789947617673
25656.0,-0.051668714493517495
25664.0,-0.05182575695461789
25672.0,-0.051921600206839634
25680.0,-0.052226703859911495
25688.0,-0.05332895848321799
25696.0,-0.05514069088209306
25704.0,-0.055131332154662954
25712.0,-0.053496051122666796
25720.0,-0.05327496806096174
25728.0,-0.054829820805423805
25736.0,-0.05576079671526142
25744.0,-0.054306399898550385
25752.0,-0.05351478389562848
25760.0,-0.054566713114850444
25768.0,-0.05603181624462892
25776.0,-0.05544448387560677
25784.0,-0.05573689554284864
25792.0,-0.05850013404120045
25800.0,-0.060122825427502566
25808.0,-0.05982350537612615
25816.0,-0.0596014261690766
25824.0,-0.05847279082752231
25832.0,-0.05731677853083085
25840.0,-0.05734034380760387
25848.0,-0.05587420135696927
25856.0,-0.05462355309009464
25864.0,-0.055795828054200636
25872.0,-0.059693237066975734
25880.0,-0.06216164438523517
25888.0,-0.0592728492576534
25896.0,-0.05473929705582486
25904.0,-0.05342080452022804
25912.0,-0.05432233509144785
25920.0,-0.05457216363369919
25928.0,-0.053468818467654125
25936.0,-0.05255244765615616
25944.0,-0.05782687273923938
25952.0,-0.07885257155152338
25960.0,-0.10916171892276486
25968.0,-0.07383231549189004
25976.0,0.20465767159877873
25984.0,0.8016707309597265
25992.0,1.3078885487184806
26000.0,1.3654633713114146
26008.0,0.9591543788906535
26016.0,0.3455318782668622
26024.0,-0.021829552405847077
26032.0,-0.10634372589257682
26040.0,-0.08582482437126944
26048.0,-0.06118772367307179
26056.0,-0.052291165026008515
26064.0,-0.05200067587655304
26072.0,-0.0537587635377291
26080.0,-0.05573674433567867
26088.0,-0.05684225096653609
26096.0,-0.05619590862737761
26104.0,-0.05746181023179356
26112.0,-0.059583355373748384
26120.0,-0.05701093672711636
26128.0,-0.053512298363900104
26136.0,-0.05173301974754524
26144.0,-0.05119735583253536
26152.0,-0.05253888870962874
26160.0,-0.05797514233912496
26168.0,-0.06589816989709515
26176.0,-0.06526175697498848
26184.0,-0.056937389089057405
26192.0,-0.05498949721990049
26200.0,-0.0639239910850268
26208.0,-0.07301783507255609
26216.0,-0.07627127518027532
26224.0,-0.07715803102276059
26232.0,-0.07222454098065698
26240.0,-0.055309033069641876
26248.0,-0.03255253168696508
26256.0,-0.022652391359021636
26264.0,-0.03431971517413629
26272.0,-0.04432201116679019
26280.0,-0.048983570705248954
26288.0,-0.0515178091928083
26296.0,-0.05178512990072602
26304.0,-0.049664284594309695
26312.0,-0.048125265995328424
26320.0,-0.047621353262666914
26328.0,-0.047537200778017284
26336.0,-0.04749043511336034
26344.0,-0.047396912283291265
26352.0,-0.04728057870560469
26360.0,-0.04716508587615867
26368.0,-0.04704605596795832
26376.0,-0.04689712509448439
26384.0,-0.04671824814061817
26392.0,-0.04666877225174153
26400.0,-0.04720842659002225
26408.0,-0.048737617486560046
26416.0,-0.04981591897544718
26424.0,-0.04820587412834625
26432.0,-0.0465803946526715
26440.0,-0.046815624649884875
26448.0,-0.04945588393589546
26456.0,-0.052667506592217
26464.0,-0.05121764436029954
26472.0,-0.04781873167714807
26480.0,-0.046243665392888274
26488.0,-0.04604162327836599
26496.0,-0.04621471986994231
26504.0,-0.04634465827167248
26512.0,-0.04639385004822981
26520.0,-0.04641667865514432
26528.0,-0.04644848464123343
26536.0,-0.04649072138150454
26544.0,-0.04650529833071241
26552.0,-0.04641678503961918
26560.0,-0.04622221878793821
26568.0,-0.046345696197217276
26576.0,-0.04803898862690518
26584.0,-0.05250997125951539
26592.0,-0.05951128849759539
26600.0,-0.06697383716477015
26608.0,-0.06759866355330037
26616.0,-0.06458806123587298
26624.0,-0.061124259148464366
26632.0,-0.055227119613744845
26640.0,-0.050256609376412124
26648.0,-0.051070028783699546
26656.0,-0.05436704763363507
26664.0,-0.05675453455335423
26672.0,-0.05870930905116771
26680.0,-0.056170831636873385
26688.0,-0.05073410629957511
26696.0,-0.0477432394031082
26704.0,-0.04695117868873457
26712.0,-0.04619958054845695
26720.0,-0.04484393992818329
26728.0,-0.04619162550412637
26736.0,-0.05923168729524231
26744.0,-0.08979276606703408
26752.0,-0.10222149621375687
26760.0,0.041715983672902364
26768.0,0.5266639728161718
26776.0,1.1564158026678166
26784.0,1.416822857367787
26792.0,1.1600133214949275
26800.0,0.5420043753858872
26808.0,0.0567528152636261
26816.0,-0.09864558725810178
26824.0,-0.09281188131749152
26832.0,-0.06208652857481117
26840.0,-0.046310560563677515
26848.0,-0.04408941782529703
26856.0,-0.04688966006331376
26864.0,-0.048657169813223614
26872.0,-0.047084976338763816
26880.0,-0.04528563227994601
26888.0,-0.044586119342436746
26896.0,-0.04538484528898812
26904.0,-0.04816654831752049
26912.0,-0.05092500647795301
26920.0,-0.05043053567991077
26928.0,-0.04854826560705283
26936.0,-0.049291814018005246
26944.0,-0.053607066894914276
26952.0,-0.05389454495850771
26960.0,-0.051192795222407245
26968.0,-0.04950523769412879
26976.0,-0.05148392648482386
26984.0,-0.05480525264902301
26992.0,-0.0576317809576467
27000.0,-0.05754641031587651
27008.0,-0.05756115498106955
27016.0,-0.06024058555811289
27024.0,-0.061418329262050056
27032.0,-0.04928234879687862
27040.0,-0.03608661352815926
27048.0,-0.04167710516430127
27056.0,-0.054006342430851284
27064.0,-0.05816396744482447
27072.0,-0.049553487314387835
27080.0,-0.04140063564636405
27088.0,-0.038621043275091534
27096.0,-0.0385000037802781
27104.0,-0.03872478493216447
27112.0,-0.03862932494475937
27120.0,-0.03857558880787756
27128.0,-0.03961752012642886
27136.0,-0.0426753807403097
27144.0,-0.04505969669612844
27152.0,-0.04223040226045155
27160.0,-0.03901501500818422
27168.0,-0.037723458827628016
27176.0,-0.03757494306000651
27184.0,-0.038286637544051455
27192.0,-0.040455785981801974
27200.0,-0.04322725716473312
27208.0,-0.043204396987249316
27216.0,-0.04290038692422343
27224.0,-0.046506340530430214
27232.0,-0.049145135411937345
27240.0,-0.049582999351114036
27248.0,-0.04908010229905034
27256.0,-0.047036949371774904
27264.0,-0.0470287324659429
27272.0,-0.04854565250487172
27280.0,-0.048471122651894835
27288.0,-0.046062596443244216
27296.0,-0.04343526485304545
27304.0,-0.0416219556717177
27312.0,-0.04295832226824454
27320.0,-0.04568218956084602
27328.0,-0.045814327894144455
27336.0,-0.04279465951428851
27344.0,-0.04220857260304693
27352.0,-0.043769675913814476
27360.0,-0.04421102653017193
27368.0,-0.044711027071356865
27376.0,-0.0475785094588064
27384.0,-0.049032668437499066
27392.0,-0.048116951999477686
27400.0,-0.046983942525661335
27408.0,-0.044677275973319545
27416.0,-0.04510763005473413
27424.0,-0.046210162263764114
27432.0,-0.04712490551145653
27440.0,-0.052057445500963216
27448.0,-0.05619258968460624
27456.0,-0.05476818468435657
27464.0,-0.05205592763539078
27472.0,-0.051345680826039984
27480.0,-0.05249723356062766
27488.0,-0.052126168822586263
27496.0,-0.055445780875066616
27504.0,-0.05815275785826626
27512.0,-0.055134505495553016
27520.0,-0.051326597417210615
27528.0,-0.04972507726720812
27536.0,-0.051919846219298106
27544.0,-0.053221026909671225
27552.0,-0.05521193791645214
27560.0,-0.056496687507273956
27568.0,-0.05217295775660287
27576.0,-0.0491144717267602
27584.0,-0.04985713602035898
27592.0,-0.04868710518223813
27600.0,-0.04965300268465934
27608.0,-0.06316688716293688
27616.0,-0.09326543808918597
27624.0,-0.09102948944043907
27632.0,0.09485847534897103
27640.0,0.6173376159679824
27648.0,1.2182649318827024
27656.0,1.4351890805966423
27664.0,1.1685729019095283
27672.0,0.5530677020531808
27680.0,0.06423940631744834
27688.0,-0.09277966108882212
27696.0,-0.08793592704733612
27704.0,-0.05982582221990511
27712.0,-0.047889357845116345
27720.0,-0.04576543023228734
27728.0,-0.045452608181146166
27736.0,-0.046558750139245396
27744.0,-0.04912473111168465
27752.0,-0.051174555667778336
27760.0,-0.05258494599415242
27768.0,-0.054919009323216306
27776.0,-0.056332431143466304
27784.0,-0.056865981537201904
27792.0,-0.05694075522379263
27800.0,-0.05591904438124315
27808.0,-0.05566225509947342
27816.0,-0.059618222307402484
27824.0,-0.0630234067011211
27832.0,-0.06233484354613449
27840.0,-0.06000286681736018
27848.0,-0.05549467828237474
27856.0,-0.0462585299232466
27864.0,-0.04587228540901612
27872.0,-0.05799320851296313
27880.0,-0.06223305396614935
27888.0,-0.05271790484342537
27896.0,-0.042487649377219466
27904.0,-0.04155406652575641
27912.0,-0.051231141829568005
27920.0,-0.060911983004133446
27928.0,-0.06717625327406851
27936.0,-0.06508591023986737
27944.0,-0.054452305042792366
27952.0,-0.04598919266582163
27960.0,-0.04517506128723116
27968.0,-0.04757563183992569
27976.0,-0.050089240459620946
27984.0,-0.049860264124666334
27992.0,-0.04895751774878054
28000.0,-0.04879600187759047
28008.0,-0.046313404000518275
28016.0,-0.044585328864723564
28024.0,-0.046831356953111296
28032.0,-0.050504281749324496
28040.0,-0.05173069470382402
28048.0,-0.04843767966793885
28056.0,-0.048716193779681165
28064.0,-0.050992279655948235
28072.0,-0.05104999528914884
28080.0,-0.05160457155433016
28088.0,-0.05548337427445338
28096.0,-0.06113875593943273
28104.0,-0.06390434255000124
28112.0,-0.06252113576627019
28120.0,-0.05976251650873741
28128.0,-0.053811382701072275
28136.0,-0.05047075175576864
28144.0,-0.049567368829375305
28152.0,-0.05040049087352079
28160.0,-0.05526855346631897
28168.0,-0.05930895667287168
28176.0,-0.059580831297795615
28184.0,-0.05988407514022202
28192.0,-0.06044009516410918
28200.0,-0.057082744484630826
28208.0,-0.05277828979438451
28216.0,-0.0544717837749285
28224.0,-0.05814175782038157
28232.0,-0.061241301351358086
28240.0,-0.06277291600306563
28248.0,-0.06377515351013884
28256.0,-0.06462349582268989
28264.0,-0.06204558852955813
28272.0,-0.05703500931859684
28280.0,-0.05251730756184712
28288.0,-0.04931653292505272
28296.0,-0.0466153055274471
28304.0,-0.0469634812254235
28312.0,-0.051788228996070586
28320.0,-0.056951880131657195
28328.0,-0.0559101379073446
28336.0,-0.0527566645744464
28344.0,-0.04986522083393577
28352.0,-0.04954041848839048
28360.0,-0.055168249271261634
28368.0,-0.07005692745288537
28376.0,-0.09593096205542825
28384.0,-0.11576582497555629
28392.0,-0.034618588251860975
28400.0,0.32822035531032123
28408.0,0.9387051375989058
28416.0,1.3404574227968067
28424.0,1.2611367691830464
28432.0,0.7408769787472012
28440.0,0.17383809516770402
28448.0,-0.0725368168241126
28456.0,-0.09977724267526902
28464.0,-0.07195395866800063
28472.0,-0.05791289775102951
28480.0,-0.059120829969552084
28488.0,-0.06078315354343708
28496.0,-0.05850639324129668
28504.0,-0.05296455235304246
28512.0,-0.049446777156371934
28520.0,-0.04980455344219206
28528.0,-0.05212551428150717
28536.0,-0.05893816901389444
28544.0,-0.0661093244167847
28552.0,-0.0665808713089017
28560.0,-0.06602878214984179
28568.0,-0.06553605964612447
28576.0,-0.06348570440754756
28584.0,-0.055878201233280814
28592.0,-0.04903452536262293
28600.0,-0.05282740544102386
28608.0,-0.06448192073765562
28616.0,-0.07787795042062573
28624.0,-0.08771927134856847
28632.0,-0.08295147828660615
28640.0,-0.05731029120685273
28648.0,-0.02638052719391773
28656.0,-0.03806552145990286
28664.0,-0.06546385601382283
28672.0,-0.07906016872908612
28680.0,-0.07637658660298945
28688.0,-0.06634036943574213
28696.0,-0.057473643501004104
28704.0,-0.05283410245348406
28712.0,-0.05111900427405164
28720.0,-0.05129302345709848
28728.0,-0.05239803983234257
28736.0,-0.05139631281129211
28744.0,-0.04867478509667883
28752.0,-0.04704184562852775
28760.0,-0.04695750201341934
28768.0,-0.04829097484961431
28776.0,-0.05077225386006552
28784.0,-0.052837084354531744
28792.0,-0.055233882281103736
28800.0,-0.05566186861681754
28808.0,-0.05564061035003144
28816.0,-0.05350081001998221
28824.0,-0.05153256088693143
28832.0,-0.051443754977884656
28840.0,-0.05650493864126918
28848.0,-0.06667344100816897
28856.0,-0.07263882783603072
28864.0,-0.06704077028645165
28872.0,-0.06013967677067718
28880.0,-0.05605571139469884
28888.0,-0.05317693950441113
28896.0,-0.05460032452103531
28904.0,-0.0587597867711727
28912.0,-0.06257296831340736
28920.0,-0.06168496462408976
28928.0,-0.0543599282517963
28936.0,-0.05151583066125412
28944.0,-0.05644983072577441
28952.0,-0.0644286675362659
28960.0,-0.06912376336904767
28968.0,-0.0735773366188654
28976.0,-0.07268020562883942
28984.0,-0.06810679554585138
28992.0,-0.06377864857197232
29000.0,-0.0612664758462626
29008.0,-0.06069321770429017
29016.0,-0.05926276270417902
29024.0,-0.05537505933675574
29032.0,-0.05353985249955713
29040.0,-0.05467858213485377
29048.0,-0.05459652643430085
29056.0,-0.05215406043517325
29064.0,-0.04986630270801567
29072.0,-0.05113782837733361
29080.0,-0.0638423111412968
29088.0,-0.09270366191461929
29096.0,-0.10737587962898265
29104.0,0.009607575124289319
29112.0,0.43696545295366385
29120.0,1.060783821467527
29128.0,1.4036850084449821
29136.0,1.2861726150589954
29144.0,0.7582463782152037
29152.0,0.18215000229926617
29160.0,-0.07547013814886565
29168.0,-0.10701542158542027
29176.0,-0.07829662912166865
29184.0,-0.05702643031809361
29192.0,-0.050137455469544005
29200.0,-0.0501460604834055
29208.0,-0.051121912442894595
29216.0,-0.051406335751997496
29224.0,-0.05157147165829079
29232.0,-0.05291310729071686
29240.0,-0.055816130553854926
29248.0,-0.056731580586084254
29256.0,-0.055871177286960824
29264.0,-0.059831152704975396
29272.0,-0.06392829990107436
29280.0,-0.06112946785111478
29288.0,-0.05780260637102922
29296.0,-0.059474085594271905
29304.0,-0.06601553193058692
29312.0,-0.07130509335016863
29320.0,-0.06813307780770265
29328.0,-0.06658767140267348
29336.0,-0.07198773414971983
29344.0,-0.07713848493640016
29352.0,-0.06666572410011423
29360.0,-0.041375209925813644
29368.0,-0.027577710794504728
29376.0,-0.030178444799000077
29384.0,-0.051739187685607854
29392.0,-0.07039256446242767
29400.0,-0.07511000237740208
29408.0,-0.06937784315420979
29416.0,-0.06103273295632185
29424.0,-0.053270476723970187
29432.0,-0.048252292249463084
29440.0,-0.04600645536272207
29448.0,-0.04559036536397674
29456.0,-0.04597251565613635
29464.0,-0.047163559063027244
29472.0,-0.04878427318522874
29480.0,-0.048192196114422894
29488.0,-0.04625586404809939
29496.0,-0.04566903501840204
29504.0,-0.04678251173939281
29512.0,-0.048119350798236656
29520.0,-0.047488817446129664
29528.0,-0.04782172264911855
29536.0,-0.0498500097432088
29544.0,-0.05191943334897491
29552.0,-0.05492194821683541
29560.0,-0.05774861388299286
29568.0,-0.05743727414683144
29576.0,-0.05253098629921627
29584.0,-0.04763176571210173
29592.0,-0.049157651169789894
29600.0,-0.053764110261957127
29608.0,-0.05605559585575478
29616.0,-0.05612506495994328
29624.0,-0.051201045772313575
29632.0,-0.03876028611534008
29640.0,-0.032805346532034846
29648.0,-0.039874914454200064
29656.0,-0.04606323739496845
29664.0,-0.04597094937313854
29672.0,-0.04466931511972837
29680.0,-0.04734253615676602
29688.0,-0.05537812318696161
29696.0,-0.06117000708713865
29704.0,-0.06315384921526244
29712.0,-0.0699702904951273
29720.0,-0.07170553662960213
29728.0,-0.0646128997070735
29736.0,-0.06037892207421552
29744.0,-0.06205675036388674
29752.0,-0.06111605324402433
29760.0,-0.05565314428911475
29768.0,-0.048633748263277925
29776.0,-0.04434751098861219
29784.0,-0.04396666050009947
29792.0,-0.04575527207812401
29800.0,-0.047158075267781235
29808.0,-0.048974381370858786
29816.0,-0.05314225100403607
29824.0,-0.05264422802110755
29832.0,-0.04997187695616623
29840.0,-0.04873684038137505
29848.0,-0.050977990299517224
29856.0,-0.06999724012857468
29864.0,-0.10574810135683045
29872.0,-0.09125924664326547
29880.0,0.14718055327163818
29888.0,0.7253956403734942
29896.0,1.2920072828452496
29904.0,1.4332945739121061
29912.0,1.0911669073312364
29920.0,0.45302332882266416
29928.0,0.014657176770477587
29936.0,-0.10310891913722199
29944.0,-0.08563002518058487
29952.0,-0.05745081968082256
29960.0,-0.04811616965926624
29968.0,-0.0495064372470722
29976.0,-0.05377199090933004
29984.0,-0.05908187131995817
29992.0,-0.05605504402908193
30000.0,-0.04833380973326465
30008.0,-0.046480961831447336
30016.0,-0.047727380136666414
30024.0,-0.05071990925352213
30032.0,-0.05358662216378224
30040.0,-0.05338580945291969
30048.0,-0.05581347871203528
30056.0,-0.05324153839537034
30064.0,-0.0487400428453271
30072.0,-0.04954708134518847
30080.0,-0.053829754661007416
30088.0,-0.05708691820012859
30096.0,-0.0582587873196863
30104.0,-0.061835728573172294
30112.0,-0.06517672109148884
30120.0,-0.06248093778686003
30128.0,-0.04786263098707316
30136.0,-0.02327966583195009
30144.0,-0.013032559852883638
30152.0,-0.003243632262506484
30160.0,-0.012312494746396669
30168.0,-0.037412491150650526
30176.0,-0.04926511223237321
30184.0,-0.05251559239779662
30192.0,-0.05339368419632093
30200.0,-0.04994903428435758
30208.0,-0.047228821523906346
30216.0,-0.041992342027150395
30224.0,-0.03675562312534796
30232.0,-0.03890529362544463
30240.0,-0.04598569774203038
30248.0,-0.04804916442259356
30256.0,-0.04185991877848054
30264.0,-0.03635400541447571
30272.0,-0.03518895107568068
30280.0,-0.03480786301554217
30288.0,-0.035659723279905714
30296.0,-0.03569821025360928
30304.0,-0.03750386347708748
30312.0,-0.04070293777287045
30320.0,-0.03913674012334265
30328.0,-0.03800395823049504
30336.0,-0.039090537879888865
30344.0,-0.04044929711677527
30352.0,-0.04336960211044916
30360.0,-0.04400120315221424
30368.0,-0.04226806420749196
30376.0,-0.04320381956475698
30384.0,-0.045611945056573636
30392.0,-0.04679687803655137
30400.0,-0.045053385008463176
30408.0,-0.044148007931553865
30416.0,-0.045335126032305634
30424.0,-0.04475994282766329
30432.0,-0.04174419621372595
30440.0,-0.04002806940615394
30448.0,-0.039912349775312744
30456.0,-0.0392562185756817
30464.0,-0.03989466811098996
30472.0,-0.04342384304442361
30480.0,-0.04807915440804198
30488.0,-0.05241968814284946
30496.0,-0.054532675078139956
30504.0,-0.048486599215035196
30512.0,-0.04289574569128972
30520.0,-0.042494212716620405
30528.0,-0.041320923456222194
30536.0,-0.041217159129594345
30544.0,-0.047857871486652714
30552.0,-0.052909230681452424
30560.0,-0.052303769416734446
30568.0,-0.04801059738008364
30576.0,-0.04127298777714919
30584.0,-0.04226244770077956
30592.0,-0.04764811498524069
30600.0,-0.04669284959161142
30608.0,-0.04231602600948798
30616.0,-0.03614571804245586
30624.0,-0.03356730458772228
30632.0,-0.03701692660710876
30640.0,-0.0406990873369414
30648.0,-0.04314464772160366
30656.0,-0.05102471896554574
30664.0,-0.05746749328603869
30672.0,-0.059009720207289625
30680.0,-0.06419158296243685
30688.0,-0.06950865253363395
30696.0,-0.06705676964531393
30704.0,-0.060282046200445034
30712.0,-0.05639247069968161
30720.0,-0.05319964328910227
30728.0,-0.0518459518013612
30736.0,-0.050858362123195666
30744.0,-0.049949922067198484
30752.0,-0.04967758748819026
30760.0,-0.046557402185002365
30768.0,-0.04520788997083347
30776.0,-0.04479894582330288
30784.0,-0.04238044814772031
30792.0,-0.03984364307512759
30800.0,-0.050140678382522584
30808.0,-0.07721110356885803
30816.0,-0.10770007910630656
30824.0,-0.07111628738003106
30832.0,0.20195129860717717
30840.0,0.7917130293302737
30848.0,1.3232201276854432
30856.0,1.4041601633658491
30864.0,0.9813297490691585
30872.0,0.34130909846869406
30880.0,-0.019355513664973158
30888.0,-0.09279621320975993
30896.0,-0.06814550583692754
30904.0,-0.04411412143823057
30912.0,-0.03778126125843931
30920.0,-0.03937454228013975
30928.0,-0.040556406839539025
30936.0,-0.04120991057012599
30944.0,-0.04009041853987791
30952.0,-0.04006507042896368
30960.0,-0.0438302903874763
30968.0,-0.04745676594188568
30976.0,-0.04691871389533383
30984.0,-0.04686510225950337
30992.0,-0.04567037286000073
31000.0,-0.043819985928067996
31008.0,-0.04655619565044478
31016.0,-0.05432683987537622
31024.0,-0.06052247242791134
31032.0,-0.061460379291619856
31040.0,-0.05837953541347444
31048.0,-0.05641740771591354
31056.0,-0.05673751500559852
31064.0,-0.0595065119037265
31072.0,-0.07037210286830832
31080.0,-0.07954770259659032
31088.0,-0.07350350480035946
31096.0,-0.04825420178003235
31104.0,-0.006316846414528482
31112.0,0.006649184100171936
31120.0,-0.02652186599314291
31128.0,-0.04856231379839407
31136.0,-0.04938501291012024
31144.0,-0.04808408479728332
31152.0,-0.052694371296185816
31160.0,-0.05357268869142169
31168.0,-0.04909911835353007
31176.0,-0.04498020992950584
31184.0,-0.042613916125696066
31192.0,-0.04141498306159788
31200.0,-0.04076324122298365
31208.0,-0.04283758624214657
31216.0,-0.04728862567723068
31224.0,-0.052377768849386226
31232.0,-0.05546111298296587
31240.0,-0.054218904799286975
31248.0,-0.05326802176637357
31256.0,-0.04969572721883796
31264.0,-0.04619842103870083
31272.0,-0.04768662149335751
31280.0,-0.04958202159595787
31288.0,-0.0485417132058982
31296.0,-0.04981154618812515
31304.0,-0.05021585338578144
31312.0,-0.049723899862296986
31320.0,-0.05170762729902343
31328.0,-0.05308324031672484
31336.0,-0.052666811739573174
31344.0,-0.0507864656694908
31352.0,-0.04875377421280665
31360.0,-0.04887266234381014
31368.0,-0.05059057168078571
31376.0,-0.0550465298940281
31384.0,-0.05732151627487246
31392.0,-0.054276439115663676
31400.0,-0.052725209911709314
31408.0,-0.056443445907990865
31416.0,-0.05887154085530461
31424.0,-0.05692517986572539
31432.0,-0.052544516966523735
31440.0,-0.05048749005939386
31448.0,-0.05122392636728173
31456.0,-0.052657590394762956
31464.0,-0.05808208487477318
31472.0,-0.06448608112874757
31480.0,-0.06590436472690146
31488.0,-0.06629393291079273
31496.0,-0.06595349471546098
31504.0,-0.06639543633016176
31512.0,-0.0640097028319791
31520.0,-0.057248135911667344
31528.0,-0.050410287583016036
31536.0,-0.04975175082308474
31544.0,-0.05370044274657315
31552.0,-0.05315738135893519
31560.0,-0.049502544478688626
31568.0,-0.04960114328389969
31576.0,-0.05212350788368261
31584.0,-0.05156479164249723
31592.0,-0.04895208628405564
31600.0,-0.04748128370046411
31608.0,-0.047497094818412106
31616.0,-0.0579563393520965
31624.0,-0.08986730919191539
31632.0,-0.12405940728584122
31640.0,-0.07205487237386222
31648.0,0.2406492645308749
31656.0,0.8534945921116104
31664.0,1.3379717900489903
31672.0,1.4017710099379501
31680.0,1.043243745914336
31688.0,0.4296916606960692
31696.0,0.01069003551099974
31704.0,-0.10660304285354098
31712.0,-0.09358190564793968
31720.0,-0.06283286215243583
31728.0,-0.04930289936241955
31736.0,-0.054012744253750924
31744.0,-0.06532826821350604
31752.0,-0.06541782467391477
31760.0,-0.056116553644154625
31768.0,-0.049889619874360525
31776.0,-0.0519677974100881
31784.0,-0.0581797657215928
31792.0,-0.05900729965172842
31800.0,-0.05912531270867187
31808.0,-0.06354279119574471
31816.0,-0.0666393919972149
31824.0,-0.06634187341028078
31832.0,-0.06585511007059103
31840.0,-0.06784695971790203
31848.0,-0.0703112343875468
31856.0,-0.0662805889325087
31864.0,-0.06366071187890744
31872.0,-0.06291635773993712
31880.0,-0.049341541863284884
31888.0,-0.02617622782845649
31896.0,-0.013422120624734846
31904.0,-0.012285547851494081
31912.0,-0.019739545440654684
31920.0,-0.04746342743825366
31928.0,-0.06974686991823276
31936.0,-0.0801311609627876
31944.0,-0.08100323632632024
31952.0,-0.07520210627509855
31960.0,-0.06350033517757292
31968.0,-0.054866929500822295
31976.0,-0.051777474939183665
31984.0,-0.04916862048221479
31992.0,-0.04551412044730329
32000.0,-0.04370824697837134
32008.0,-0.04324883651494461
32016.0,-0.04314196811765946
32024.0,-0.04349524600461138
32032.0,-0.04554618755389384
32040.0,-0.04981608048626989
32048.0,-0.052295889971184485
32056.0,-0.05281533082259547
32064.0,-0.05472907461406612
32072.0,-0.05622116562906832
32080.0,-0.056152520134367466
32088.0,-0.05774869670704861
32096.0,-0.05855405630902265
32104.0,-0.0571726421238693
32112.0,-0.062116296908843786
32120.0,-0.06526662108688805
32128.0,-0.06146491630606617
32136.0,-0.058353130928192505
32144.0,-0.05640755892786847
32152.0,-0.05467606387424977
32160.0,-0.05775012237277634
32168.0,-0.06108664814158313
32176.0,-0.058199354494980655
32184.0,-0.05566650657908748
32192.0,-0.052683891633996664
32200.0,-0.048981289467420835
32208.0,-0.050594216217557386
32216.0,-0.0569982792295317
32224.0,-0.06002780105435063
32232.0,-0.058259361589188575
32240.0,-0.05475093808938613
32248.0,-0.05298714187335001
32256.0,-0.051309349003158894
32264.0,-0.05115748148879572
32272.0,-0.05915305764222193
32280.0,-0.0707454991469424
32288.0,-0.07808629018380303
32296.0,-0.08032574348393672
32304.0,-0.0755175175151018
32312.0,-0.06970726167072075
32320.0,-0.06830906815670812
32328.0,-0.06853314951570096
32336.0,-0.06525907678722218
32344.0,-0.06022892837908764
32352.0,-0.05516693403375518
32360.0,-0.05386249551355701
32368.0,-0.05421141744108425
32376.0,-0.05536322971893229
32384.0,-0.055507324378126555
32392.0,-0.057079673145597934
32400.0,-0.0633518350200948
32408.0,-0.07840017062960856
32416.0,-0.10506196321605904
32424.0,-0.07430342234491437
32432.0,0.1874886787946459
32440.0,0.7545520231151364
32448.0,1.293026008328902
32456.0,1.4515518067952289
32464.0,1.162329627816766
32472.0,0.5409276685297226
32480.0,0.057508169906221485
32488.0,-0.09595521791361586
32496.0,-0.0901765134112762
32504.0,-0.06139865256694911
32512.0,-0.05130590577477794
32520.0,-0.054036620349881104
32528.0,-0.058754775151741975
32536.0,-0.058854677119101945
32544.0,-0.054020359907369905
32552.0,-0.051301893111606836
32560.0,-0.053776148785197875
32568.0,-0.06051164457817198
32576.0,-0.06417247417908385
32584.0,-0.05839486060528809
32592.0,-0.04928310978359896
32600.0,-0.04547133086709363
32608.0,-0.047349083891971476
32616.0,-0.05746160745372661
32624.0,-0.06808583715597055
32632.0,-0.0717221641298691
32640.0,-0.07868850900556931
32648.0,-0.08029706697713496
32656.0,-0.07328244856222718
32664.0,-0.06751153237964541
32672.0,-0.06703081382405855
32680.0,-0.06242681576094091
32688.0,-0.05564731183430708
32696.0,-0.050712613334713975
32704.0,-0.04476619815025756
32712.0,-0.05272457764449955
32720.0,-0.05918556623958831
32728.0,-0.0626005936606619
32736.0,-0.0604025142114171
32744.0,-0.05465974409978706
32752.0,-0.0504827377328993
32760.0,-0.04568663362699326
32768.0,-0.0424410479895392
32776.0,-0.04067498013186694
32784.0,-0.04137905269031478
32792.0,-0.04661320230426114
32800.0,-0.05080055336791074
32808.0,-0.05082721579435765
32816.0,-0.0503932109206372
32824.0,-0.04594029726136174
32832.0,-0.04167600043577196
32840.0,-0.04192405616551623
32848.0,-0.0434958547183948
32856.0,-0.045175778934343866
32864.0,-0.05104202368659269
32872.0,-0.06111099304686151
32880.0,-0.06661470924957362
32888.0,-0.059489141651178384
32896.0,-0.050221261304648844
32904.0,-0.05046037027220425
32912.0,-0.055919237810988925
32920.0,-0.05670761386116359
32928.0,-0.05706469700560671
32936.0,-0.060368436884706944
32944.0,-0.060109468483677035
32952.0,-0.05210721521169807
32960.0,-0.04486223062856364
32968.0,-0.043134916159227814
32976.0,-0.046285421802338064
32984.0,-0.052018319118333295
32992.0,-0.05429891003292569
33000.0,-0.05914558505395606
33008.0,-0.06594595145079467
33016.0,-0.06637691962377812
33024.0,-0.06302339355522338
33032.0,-0.05516451174670711
33040.0,-0.0509027669244357
33048.0,-0.04845283991106494
33056.0,-0.0477678547925584
33064.0,-0.05322756535156598
33072.0,-0.05837955573164105
33080.0,-0.05627482210175747
33088.0,-0.05301333680743097
33096.0,-0.057134266359561536
33104.0,-0.06122552466543047
33112.0,-0.06076787663912441
33120.0,-0.05981927831702659
33128.0,-0.05518877946120452
33136.0,-0.04762672087099956
33144.0,-0.04655767804852555
33152.0,-0.04917197542413487
33160.0,-0.05100412102286729
33168.0,-0.05362921569748997
33176.0,-0.05465599298046663
33184.0,-0.05180388821701298
33192.0,-0.04928328652617092
33200.0,-0.044528479276712316
33208.0,-0.04118107564856752
33216.0,-0.049571631648579265
