time,ECG
0.0,-0.018294339155303298
8.0,-0.03652861100011288
16.0,-0.04250377354328312
24.0,-0.042215845185142514
32.0,-0.040902226484217714
40.0,-0.0401436042796543
48.0,-0.03983465289551502
56.0,-0.03965531516936335
64.0,-0.0394647436924812
72.0,-0.039247545128398585
80.0,-0.03902046619348568
88.0,-0.03879542403572427
96.0,-0.038575531690969084
104.0,-0.03835456546417239
112.0,-0.03811186582150187
120.0,-0.03782224496380792
128.0,-0.037530486318076324
136.0,-0.03751417057002742
144.0,-0.038320457462455985
152.0,-0.03991048405892367
160.0,-0.039790094081383176
168.0,-0.037779766804210003
176.0,-0.03647950090640328
184.0,-0.03603350474507075
192.0,-0.03588999724444764
200.0,-0.035750543324905015
208.0,-0.03556105522707802
216.0,-0.03535023613818864
224.0,-0.03515325214734588
232.0,-0.03498780826375955
240.0,-0.03480163328913089
248.0,-0.0343738455752436
256.0,-0.033366986860063605
264.0,-0.032089481405834584
272.0,-0.03343110516565439
280.0,-0.044012229202234375
288.0,-0.06614283121603245
296.0,-0.06754399200769233
304.0,0.0597902660490766
312.0,0.4407618594915193
320.0,0.8573623247888716
328.0,0.7433852373280317
336.0,0.2709443154289647
344.0,-0.012183700148981168
352.0,-0.07310491234487027
360.0,-0.0551115871797982
368.0,-0.03568471804509073
376.0,-0.028924315666508955
384.0,-0.02868545534552766
392.0,-0.02952911439524708
400.0,-0.0298040950580529
408.0,-0.02961607665473355
416.0,-0.0292980041276126
424.0,-0.028986186657399566
432.0,-0.028658924842792033
440.0,-0.02825135315356725
448.0,-0.027838424123589903
456.0,-0.02795480486275604
464.0,-0.02966530606096046
472.0,-0.03291331523479644
480.0,-0.033042258324175726
488.0,-0.029259440501337927
496.0,-0.026532030341199362
504.0,-0.025578118122214357
512.0,-0.026214973480925385
520.0,-0.029339186434359583
528.0,-0.034103003971692164
536.0,-0.03491676048863983
544.0,-0.0341306488336583
552.0,-0.03523444611769094
560.0,-0.03412622421190395
568.0,-0.030846554123021376
576.0,-0.028174184146079827
584.0,-0.025448276404573103
592.0,-0.02389990526553334
600.0,-0.023463221678985503
608.0,-0.023386805547081384
616.0,-0.023304798405989088
624.0,-0.02316325406379183
632.0,-0.022997599189623536
640.0,-0.022834581695317692
648.0,-0.02268150525569853
656.0,-0.022537500473404786
664.0,-0.022400937469827742
672.0,-0.022271190274020188
680.0,-0.02214825285050053
688.0,-0.022032250494076006
696.0,-0.021923262406360472
704.0,-0.021821316764376306
712.0,-0.021726418395561928
720.0,-0.021638563337618974
728.0,-0.021557741394885015
736.0,-0.021483934961826788
744.0,-0.02141711801927841
752.0,-0.0213572558672551
760.0,-0.021304305168287786
768.0,-0.02125821404050867
776.0,-0.021218922102580386
784.0,-0.021186360495839204
792.0,-0.021160451898536475
800.0,-0.021141110532449662
808.0,-0.021128242178968255
816.0,-0.02112174417963761
824.0,-0.021121505448732668
832.0,-0.021127406469694965
840.0,-0.02113931929953048
848.0,-0.021157107564655418
856.0,-0.021180626455238667
864.0,-0.021209722721631647
872.0,-0.021244234659320283
880.0,-0.021283992104376585
888.0,-0.02132881641228619
896.0,-0.021378520448876556
904.0,-0.021432908567477135
912.0,-0.021491776591721697
920.0,-0.02155491179321558
928.0,-0.021622092863837865
936.0,-0.021693089895232335
944.0,-0.021767664352669764
952.0,-0.021845569078864733
960.0,-0.021926548284707838
968.0,-0.022010337459956803
976.0,-0.02209666298728188
984.0,-0.022185241463828477
992.0,-0.022275779845445053
1000.0,-0.02236797973700516
1008.0,-0.022461548951795984
1016.0,-0.02255620986981652
1024.0,-0.02265165551903345
1032.0,-0.02274737176916814
1040.0,-0.022842376797197195
1048.0,-0.02293550688512956
1056.0,-0.023027791794013187
1064.0,-0.023127699688889218
1072.0,-0.02325248293290326
1080.0,-0.023401166903158754
1088.0,-0.023467583576765604
1096.0,-0.02314585513156661
1104.0,-0.022166107861960837
1112.0,-0.02154249119041484
1120.0,-0.025827342879953766
1128.0,-0.042342963217628586
1136.0,-0.06565788385864964
1144.0,-0.03666184625186079
1152.0,0.1849177450414331
1160.0,0.6521589074334108
1168.0,0.9076275630295828
1176.0,0.5720124805037564
1184.0,0.13529662216691193
1192.0,-0.04614435473595326
1200.0,-0.062096633795574105
1208.0,-0.03924708008119805
1216.0,-0.025215753538241053
1224.0,-0.02213807174563714
1232.0,-0.02298927831678101
1240.0,-0.02392783241346657
1248.0,-0.02424126493802952
1256.0,-0.024228002825505184
1264.0,-0.02415712171009581
1272.0,-0.02411151739956255
1280.0,-0.02408679188826733
1288.0,-0.02406676433878724
1296.0,-0.024044591120428206
1304.0,-0.024021365269211944
1312.0,-0.024002199923231007
1320.0,-0.023989996326748413
1328.0,-0.023967605889142606
1336.0,-0.023871830710986305
1344.0,-0.023621011654392867
1352.0,-0.023350078257180797
1360.0,-0.023936343360398595
1368.0,-0.027148088932272395
1376.0,-0.03314763067732423
1384.0,-0.03748652295288524
1392.0,-0.03635491919236634
1400.0,-0.03404020494083222
1408.0,-0.03287833719996902
1416.0,-0.03167939631642788
1424.0,-0.032485611859360886
1432.0,-0.03105569531404977
1440.0,-0.02659481708186981
1448.0,-0.023891938903052107
1456.0,-0.023304073562253898
1464.0,-0.023474295666773656
1472.0,-0.02366376148462858
1480.0,-0.023736225572327886
1488.0,-0.02374959457386716
1496.0,-0.023755675109286268
1504.0,-0.023770349861439385
1512.0,-0.0237927279769703
1520.0,-0.023819685102665515
1528.0,-0.023849830865003054
1536.0,-0.023883005528113087
1544.0,-0.023919359197049416
1552.0,-0.023958980233844233
1560.0,-0.02400186747285236
1568.0,-0.02404797999542851
1576.0,-0.024097267165753153
1584.0,-0.024149674267713857
1592.0,-0.024205133506325426
1600.0,-0.02426354388333586
1608.0,-0.024324759304293127
1616.0,-0.024388662481633072
1624.0,-0.02445544713469952
1632.0,-0.024526007460687838
1640.0,-0.024601410212193846
1648.0,-0.024679061519337585
1656.0,-0.02474460298279399
1664.0,-0.02477085225775803
1672.0,-0.024762510189415266
1680.0,-0.024892848089838195
1688.0,-0.02564030696902806
1696.0,-0.02738045315128008
1704.0,-0.02853975381213067
1712.0,-0.02713210812499288
1720.0,-0.025756474591208278
1728.0,-0.02536713696948411
1736.0,-0.025466794342572797
1744.0,-0.025641524150074622
1752.0,-0.025770237763998505
1760.0,-0.02586300436495272
1768.0,-0.025945164761174
1776.0,-0.026027352317672253
1784.0,-0.026110070476660314
1792.0,-0.026190913855365233
1800.0,-0.026268063884248245
1808.0,-0.026343609399514266
1816.0,-0.026428766713665456
1824.0,-0.026541437696269616
1832.0,-0.026666572378822084
1840.0,-0.026653478136028287
1848.0,-0.026149058340482825
1856.0,-0.025008943165836843
1864.0,-0.02488999138679411
1872.0,-0.031488441858384175
1880.0,-0.051676505801182576
1888.0,-0.07193850473658349
1896.0,-0.012289020577771382
1904.0,0.2814349137076532
1912.0,0.790110431182089
1920.0,0.9505195648667775
1928.0,0.5304767313874449
1936.0,0.09837613661443148
1944.0,-0.059340743356279375
1952.0,-0.0642051698422972
1960.0,-0.039843931120232545
1968.0,-0.02692148540636158
1976.0,-0.024607023650911115
1984.0,-0.025578770587693967
1992.0,-0.026348307611690536
2000.0,-0.026549673288039474
2008.0,-0.02693766594941736
2016.0,-0.02824684911080577
2024.0,-0.029581142768389242
2032.0,-0.028297888678786014
2040.0,-0.026582367473242118
2048.0,-0.026906484105776646
2056.0,-0.02978669843887443
2064.0,-0.03249575050501963
2072.0,-0.030995213996767232
2080.0,-0.029509044692370527
2088.0,-0.028257047295125685
2096.0,-0.026624638085342184
2104.0,-0.027308833650816947
2112.0,-0.03034235414603986
2120.0,-0.033460168797305456
2128.0,-0.03587343716962013
2136.0,-0.037281142457758494
2144.0,-0.03957033671197717
2152.0,-0.03988774587357528
2160.0,-0.03924685902501326
2168.0,-0.038503137266354695
2176.0,-0.036692614701345626
2184.0,-0.03504453908723936
2192.0,-0.031216783220529003
2200.0,-0.026771181004837746
2208.0,-0.024712572258090412
2216.0,-0.02441910043248071
2224.0,-0.024601646717900914
2232.0,-0.024723690639070872
2240.0,-0.02473789221099993
2248.0,-0.02471189319774609
2256.0,-0.024687274566168184
2264.0,-0.02467323289932091
2272.0,-0.024667316270889424
2280.0,-0.024666752696535624
2288.0,-0.024670478465552696
2296.0,-0.024678235322544928
2304.0,-0.024690209145680934
2312.0,-0.02470817940474962
2320.0,-0.024737055917853114
2328.0,-0.024781155490474015
2336.0,-0.024824247403165
2344.0,-0.024793304058718487
2352.0,-0.024570584145036368
2360.0,-0.024242453350611728
2368.0,-0.024755230549543504
2376.0,-0.02836621943552296
2384.0,-0.036142231344246746
2392.0,-0.04291178320654371
2400.0,-0.04532723786326031
2408.0,-0.04547229664816473
2416.0,-0.04537918540533734
2424.0,-0.04564958631548836
2432.0,-0.04555367322841998
2440.0,-0.042941967550538016
2448.0,-0.03596458442502056
2456.0,-0.028593690911092727
2464.0,-0.025477084245079197
2472.0,-0.02517900333056129
2480.0,-0.025709673329685885
2488.0,-0.026716140812979416
2496.0,-0.028529109908455166
2504.0,-0.0296947602538921
2512.0,-0.028292110266751835
2520.0,-0.026921783624483567
2528.0,-0.02650794546746659
2536.0,-0.02654045437525922
2544.0,-0.026728289953029876
2552.0,-0.027361673868998515
2560.0,-0.028919821568452023
2568.0,-0.030409435171809857
2576.0,-0.029335852300066488
2584.0,-0.02806734271557837
2592.0,-0.0286828572629849
2600.0,-0.030505923697932195
2608.0,-0.030370919334512348
2616.0,-0.028719484286863387
2624.0,-0.027821104359661085
2632.0,-0.02752284220436221
2640.0,-0.027337638970023736
2648.0,-0.027721561575825025
2656.0,-0.030544744221769615
2664.0,-0.04094181047456889
2672.0,-0.06510129370335518
2680.0,-0.07134441139921913
2688.0,0.06045387756964677
2696.0,0.48536240436678046
2704.0,1.008963853823825
2712.0,1.0244330240023538
2720.0,0.506076044201266
2728.0,0.06795952135778544
2736.0,-0.07103265120477219
2744.0,-0.06554671597529725
2752.0,-0.03947949323442846
2760.0,-0.028382872926107503
2768.0,-0.028507139926139128
2776.0,-0.029525174307317475
2784.0,-0.028482538490024394
2792.0,-0.028284250097476486
2800.0,-0.030327639568548823
2808.0,-0.0333726644300568
2816.0,-0.03472004067897455
2824.0,-0.033351410954707325
2832.0,-0.03151522704265647
2840.0,-0.03091908271400809
2848.0,-0.03048074790959623
2856.0,-0.030227024730527977
2864.0,-0.03038205342826385
2872.0,-0.03259808586273243
2880.0,-0.03379529259213045
2888.0,-0.03426668898584184
2896.0,-0.03583143860861978
2904.0,-0.04025047729022631
2912.0,-0.044601957846030826
2920.0,-0.04595651692066255
2928.0,-0.0450170432845955
2936.0,-0.042904864602208694
2944.0,-0.042046320104159964
2952.0,-0.04233347236758634
2960.0,-0.041580720043624696
2968.0,-0.03977553994763376
2976.0,-0.034845889401240365
2984.0,-0.029665243602052242
2992.0,-0.02603609411769025
3000.0,-0.024789277816586793
3008.0,-0.02474115528388654
3016.0,-0.02488684314910322
3024.0,-0.02492963430231075
3032.0,-0.02489354601164451
3040.0,-0.024836669958914776
3048.0,-0.024769133231939324
3056.0,-0.024667772775688938
3064.0,-0.02455218853943782
3072.0,-0.024640478639151066
3080.0,-0.025441342252805893
3088.0,-0.027144975398136026
3096.0,-0.02768308010698365
3104.0,-0.02596110304091149
3112.0,-0.02512550240374872
3120.0,-0.02620435872014679
3128.0,-0.027820300249234486
3136.0,-0.028047293763952586
3144.0,-0.02929907957549884
3152.0,-0.030140181095697372
3160.0,-0.028458513590127087
3168.0,-0.025882032541950175
3176.0,-0.02471455482800036
3184.0,-0.024523948306168157
3192.0,-0.02456785430139219
3200.0,-0.02486948257078358
3208.0,-0.026232067415973448
3216.0,-0.029125254379927523
3224.0,-0.031577239095369095
3232.0,-0.03269362512015344
3240.0,-0.03251196204002694
3248.0,-0.030308970994448327
3256.0,-0.028875519703426108
3264.0,-0.028552513733794246
3272.0,-0.026938313396452356
3280.0,-0.026189199306766185
3288.0,-0.027333954304160222
3296.0,-0.029400859096932994
3304.0,-0.030363469374635067
3312.0,-0.03185116681950448
3320.0,-0.03276854374411966
3328.0,-0.03192286416742845
3336.0,-0.029595623511771283
3344.0,-0.029293797122819966
3352.0,-0.034159289120821175
3360.0,-0.041352410421151876
3368.0,-0.046250028896574286
3376.0,-0.047367556246943124
3384.0,-0.04576913372849018
3392.0,-0.042872844931239204
3400.0,-0.04187356532543015
3408.0,-0.04349211666748116
3416.0,-0.04482574681486174
3424.0,-0.04488073839649092
3432.0,-0.043271867063147604
3440.0,-0.036838394045543336
3448.0,-0.030571246338159247
3456.0,-0.029151181193079457
3464.0,-0.030980430757533504
3472.0,-0.031620544168024914
3480.0,-0.02945792856558198
3488.0,-0.027022602678069618
3496.0,-0.026731396422579337
3504.0,-0.03491488414695034
3512.0,-0.05913527225495854
3520.0,-0.08208963799079111
3528.0,-0.0069508643222356194
3536.0,0.3459728726305502
3544.0,0.9316666422800481
3552.0,1.158066611844987
3560.0,0.7523998791078345
3568.0,0.2034703223956969
3576.0,-0.04732532358408524
3584.0,-0.0801292280710275
3592.0,-0.05290242073665625
3600.0,-0.03236733216647757
3608.0,-0.02688481097802534
3616.0,-0.028523068212282374
3624.0,-0.031489155293031215
3632.0,-0.03186165265055224
3640.0,-0.030014438871889898
3648.0,-0.029524887772079175
3656.0,-0.031393390474825686
3664.0,-0.03378680744129699
3672.0,-0.03373938452679726
3680.0,-0.032066581119278716
3688.0,-0.031528294676528165
3696.0,-0.030515163161656558
3704.0,-0.030283987640752606
3712.0,-0.033333923424145
3720.0,-0.036392023636596965
3728.0,-0.0348861343939536
3736.0,-0.032785819734685064
3744.0,-0.03422919621539287
3752.0,-0.03865092233334466
3760.0,-0.04403660172772009
3768.0,-0.04701882098116058
3776.0,-0.04781813260113493
3784.0,-0.04780519306996597
3792.0,-0.04648726742057888
3800.0,-0.04157793779293839
3808.0,-0.03331771979558447
3816.0,-0.02762391563867863
3824.0,-0.025981008250581642
3832.0,-0.026257845070295674
3840.0,-0.027448035544528727
3848.0,-0.02931273635159223
3856.0,-0.02967912461376655
3864.0,-0.02784927520911001
3872.0,-0.02655838999365258
3880.0,-0.02613235592784495
3888.0,-0.02605021532571617
3896.0,-0.026256797404887386
3904.0,-0.027296966286059886
3912.0,-0.029339314999092602
3920.0,-0.030334093263671254
3928.0,-0.0302780854666567
3936.0,-0.028910541342308773
3944.0,-0.026758785894858566
3952.0,-0.02584781410960389
3960.0,-0.02657092255658186
3968.0,-0.02923989463111945
3976.0,-0.032143679389273615
3984.0,-0.031122845580943588
3992.0,-0.02795325941879976
4000.0,-0.026294648933516046
4008.0,-0.02603625759226059
4016.0,-0.02621945666121186
4024.0,-0.026387909982465735
4032.0,-0.026478935199482037
4040.0,-0.026539477923347578
4048.0,-0.026600518756424354
4056.0,-0.026656587009069397
4064.0,-0.026679238459115837
4072.0,-0.026671045601004296
4080.0,-0.026804418225805125
4088.0,-0.027557765161061523
4096.0,-0.029307116518449066
4104.0,-0.030480066486619082
4112.0,-0.029091742194094543
4120.0,-0.02773856187067617
4128.0,-0.027360383173119635
4136.0,-0.02743287449992962
4144.0,-0.027548337676207613
4152.0,-0.027763272571045803
4160.0,-0.028570582476805766
4168.0,-0.03035927744825214
4176.0,-0.03152152940101895
4184.0,-0.030133433884539748
4192.0,-0.028817785741632983
4200.0,-0.028486370285546337
4208.0,-0.028637084323575743
4216.0,-0.028863226426492118
4224.0,-0.029047507017356804
4232.0,-0.029188370501686496
4240.0,-0.029272315029597283
4248.0,-0.029270066975961528
4256.0,-0.02929406901384933
4264.0,-0.02990265074784789
4272.0,-0.03207242653615936
4280.0,-0.03538006140297355
4288.0,-0.03572032277362222
4296.0,-0.032740093115415383
4304.0,-0.030675423316527763
4312.0,-0.03028056366368488
4320.0,-0.030500059650754145
4328.0,-0.030406557685189118
4336.0,-0.02945288426862414
4344.0,-0.028329978552965533
4352.0,-0.03139070670776073
4360.0,-0.04738677015334182
4368.0,-0.07641504619444935
4376.0,-0.06724222007960337
4384.0,0.1298744373964618
4392.0,0.6384129536563519
4400.0,1.0873602896307477
4408.0,0.9192794567620641
4416.0,0.3576396655052124
4424.0,0.002826211087384633
4432.0,-0.08042267554977181
4440.0,-0.061495003840304444
4448.0,-0.03795691932595287
4456.0,-0.02941902171875971
4464.0,-0.029140193633913947
4472.0,-0.030757200540548348
4480.0,-0.0326503943710228
4488.0,-0.034463007634607384
4496.0,-0.033850279901126594
4504.0,-0.03193241076555308
4512.0,-0.030871460600414707
4520.0,-0.030548129127043865
4528.0,-0.030845516166869726
4536.0,-0.032415698851511174
4544.0,-0.035329297600940036
4552.0,-0.03623362393880947
4560.0,-0.03424186154633596
4568.0,-0.035002723215787804
4576.0,-0.03910754528070986
4584.0,-0.040967784275926324
4592.0,-0.04022410270956427
4600.0,-0.038174802711297036
4608.0,-0.036648652624583604
4616.0,-0.039501464206746356
4624.0,-0.04531404538460132
4632.0,-0.04943282725188661
4640.0,-0.05070301660735031
4648.0,-0.04954207797082986
4656.0,-0.04462149848842569
4664.0,-0.036332036775232716
4672.0,-0.030568211545063798
4680.0,-0.028948217598530272
4688.0,-0.02909029097395511
4696.0,-0.029404999101565462
4704.0,-0.02950879844773474
4712.0,-0.029481061132665586
4720.0,-0.029426293411555733
4728.0,-0.029382859075657734
4736.0,-0.029352102234371284
4744.0,-0.029328216577627696
4752.0,-0.02930812446613998
4760.0,-0.02929130608410285
4768.0,-0.029278038146401817
4776.0,-0.029268552390458856
4784.0,-0.029262915587149222
4792.0,-0.029261106313884573
4800.0,-0.0292630586289601
4808.0,-0.029268667264306752
4816.0,-0.02927785919905487
4824.0,-0.02929087181832772
4832.0,-0.029308640793506553
4840.0,-0.029332272074367127
4848.0,-0.02935920895205257
4856.0,-0.02937512828581931
4864.0,-0.029352881083240953
4872.0,-0.02929719957965824
4880.0,-0.029381384634026567
4888.0,-0.03008390567503213
4896.0,-0.03178035775332563
4904.0,-0.03289723710910829
4912.0,-0.03144846400995668
4920.0,-0.030032985721358978
4928.0,-0.029605020239409068
4936.0,-0.029667225229680794
4944.0,-0.029806022951251444
4952.0,-0.029901646656223867
4960.0,-0.029966061437274327
4968.0,-0.030022409775231403
4976.0,-0.030063771849113706
4984.0,-0.030052365139028234
4992.0,-0.02997738112582087
5000.0,-0.030038452126378443
5008.0,-0.03087555807013973
5016.0,-0.033176378169775235
5024.0,-0.035525112372567176
5032.0,-0.03583589685224434
5040.0,-0.03569016074954016
5048.0,-0.03667813832726696
5056.0,-0.03514717043764881
5064.0,-0.032113557746876034
5072.0,-0.030671224103522264
5080.0,-0.03048084485984962
5088.0,-0.030325650732192865
5096.0,-0.029398100658358586
5104.0,-0.02824081996456606
5112.0,-0.03095570390884022
5120.0,-0.04594274296992633
5128.0,-0.07373728328993431
5136.0,-0.06657725007770963
5144.0,0.11825766836448853
5152.0,0.6102190474839118
5160.0,1.0671629106257188
5168.0,0.9147295420754823
5176.0,0.36386630993908164
5184.0,0.008440820747421614
5192.0,-0.07789250144280829
5200.0,-0.06033798157196997
5208.0,-0.0369305027415938
5216.0,-0.028201396254616654
5224.0,-0.027704627938370974
5232.0,-0.028829789699827083
5240.0,-0.029667066410639622
5248.0,-0.030773996797071993
5256.0,-0.032260083800228025
5264.0,-0.0316636630297203
5272.0,-0.02980169055509161
5280.0,-0.02998946862846026
5288.0,-0.03288929167657177
5296.0,-0.03493021790952001
5304.0,-0.03201994943001614
5312.0,-0.028869003831992448
5320.0,-0.02778427463188421
5328.0,-0.028297163611832647
5336.0,-0.029759615869142726
5344.0,-0.030621667456204364
5352.0,-0.03280397360693877
5360.0,-0.03949101727833758
5368.0,-0.04525877167718566
5376.0,-0.04708345012079009
5384.0,-0.04689220736937812
5392.0,-0.04639896158730183
5400.0,-0.04620739094234059
5408.0,-0.046376996615685194
5416.0,-0.04650317536432326
5424.0,-0.04510820448715448
5432.0,-0.03977946218043786
5440.0,-0.031458445460622465
5448.0,-0.026205755828767715
5456.0,-0.024854624306204807
5464.0,-0.02499434032580186
5472.0,-0.025214222482681053
5480.0,-0.025223719845014658
5488.0,-0.02511831203725724
5496.0,-0.024994596021941224
5504.0,-0.02488431671569666
5512.0,-0.024786884954686454
5520.0,-0.024696664816278777
5528.0,-0.02461098799473028
5536.0,-0.024529478336767052
5544.0,-0.024452388049452673
5552.0,-0.024380041102421018
5560.0,-0.02431313197816436
5568.0,-0.024252908842260574
5576.0,-0.02419932219838935
5584.0,-0.02414488747355372
5592.0,-0.02406796680680576
5600.0,-0.023949399548513217
5608.0,-0.02386061175439156
5616.0,-0.024123499828017737
5624.0,-0.025256971310414565
5632.0,-0.02688321215300848
5640.0,-0.02673256138853021
5648.0,-0.026654899407349105
5656.0,-0.0281192367000932
5664.0,-0.02854889577335749
5672.0,-0.0273151397367117
5680.0,-0.0250050389014031
5688.0,-0.023845959666088427
5696.0,-0.023668895581828085
5704.0,-0.023785493854753655
5712.0,-0.023883262108327342
5720.0,-0.023923935438573546
5728.0,-0.023941405383193975
5736.0,-0.023958817435293628
5744.0,-0.023981696411717646
5752.0,-0.024008622171168285
5760.0,-0.024037835167366725
5768.0,-0.024069159756231532
5776.0,-0.024104213777187043
5784.0,-0.024144605013881416
5792.0,-0.02418416899964925
5800.0,-0.024194735937646296
5808.0,-0.02412952963232173
5816.0,-0.02401694839509254
5824.0,-0.024214441143714023
5832.0,-0.025598572174651064
5840.0,-0.02862022213219001
5848.0,-0.030507260020167747
5856.0,-0.029594689802798366
5864.0,-0.029854920747622082
5872.0,-0.03081742459242304
5880.0,-0.03057151823049025
5888.0,-0.028407470231763356
5896.0,-0.02566545073418659
5904.0,-0.024021098176838698
5912.0,-0.022708329718725738
5920.0,-0.02227442858093692
5928.0,-0.027807529767719608
5936.0,-0.047153418388512565
5944.0,-0.07151819934348017
5952.0,-0.028789438201230245
5960.0,0.23974374725469882
5968.0,0.7663851546177638
5976.0,1.019086795667029
5984.0,0.6367002871802765
5992.0,0.15058764053487877
6000.0,-0.049715180936523065
6008.0,-0.06647631849921562
6016.0,-0.040611847671800136
6024.0,-0.024686919060104586
6032.0,-0.02135355914241695
6040.0,-0.024271893329406866
6048.0,-0.030487540677929404
6056.0,-0.03632653926421394
6064.0,-0.0370664214666731
6072.0,-0.03437574912421568
6080.0,-0.03377872055410799
6088.0,-0.03402213254471907
6096.0,-0.03477513385660225
6104.0,-0.03374801512047431
6112.0,-0.0327175447954357
6120.0,-0.03237649306348504
6128.0,-0.0335519191702158
6136.0,-0.03670208277360453
6144.0,-0.03867895329390343
6152.0,-0.038706576020663346
6160.0,-0.03880906382879084
6168.0,-0.03833312406092868
6176.0,-0.039593543025473514
6184.0,-0.041064445902279416
6192.0,-0.04153344300905625
6200.0,-0.04150584369810816
6208.0,-0.04152657764894457
6216.0,-0.04168006966361433
6224.0,-0.041237832205666125
6232.0,-0.03843125663127356
6240.0,-0.03239596445531353
6248.0,-0.026477130021259287
6256.0,-0.022388056574017774
6264.0,-0.020822319399062924
6272.0,-0.020695749468247083
6280.0,-0.020861720854592106
6288.0,-0.020931868529068757
6296.0,-0.020908098392894703
6304.0,-0.020857755388901313
6312.0,-0.020814878197638546
6320.0,-0.020785282276240172
6328.0,-0.02076142699425123
6336.0,-0.020723038027008943
6344.0,-0.02064345692936757
6352.0,-0.02055243779511817
6360.0,-0.020690528142554232
6368.0,-0.02158519227051331
6376.0,-0.0233602366358022
6384.0,-0.023770561216596518
6392.0,-0.021955854055652695
6400.0,-0.020861181872046396
6408.0,-0.021391228809979176
6416.0,-0.023230367259292787
6424.0,-0.024027094664970532
6432.0,-0.022419117041110263
6440.0,-0.02116188070263995
6448.0,-0.02081700923731998
6456.0,-0.020833595077398626
6464.0,-0.02092527776893129
6472.0,-0.021344998148396663
6480.0,-0.022656808431557183
6488.0,-0.02446258919028052
6496.0,-0.02403522439635965
6504.0,-0.02233881825760803
6512.0,-0.021550902437135408
6520.0,-0.02151055875945987
6528.0,-0.021689033352341652
6536.0,-0.02185143106842358
6544.0,-0.021971144818476483
6552.0,-0.022075396139021833
6560.0,-0.02218301252743337
6568.0,-0.02229702782988726
6576.0,-0.02240548859651902
6584.0,-0.022481340041218992
6592.0,-0.02251285518590988
6600.0,-0.0226189287809447
6608.0,-0.023212558313049775
6616.0,-0.024798937372329403
6624.0,-0.02644677261659936
6632.0,-0.02546170536082626
6640.0,-0.023672480241509426
6648.0,-0.022827885361975397
6656.0,-0.023509864627301934
6664.0,-0.027229381265246475
6672.0,-0.03414092692727343
6680.0,-0.03931805259899586
6688.0,-0.041292637464650284
6696.0,-0.03859342446318495
6704.0,-0.03237262550086873
6712.0,-0.027916373645975406
6720.0,-0.027693983277397312
6728.0,-0.02816816166639301
6736.0,-0.028552704213941113
6744.0,-0.02796769979318365
6752.0,-0.029579281363759976
6760.0,-0.04367164918202665
6768.0,-0.06912304955596214
6776.0,-0.049005975688680106
6784.0,0.1642002231514628
6792.0,0.6574843383477378
6800.0,1.002055862531438
6808.0,0.7085722593113671
6816.0,0.2020018765529656
6824.0,-0.03719631360000922
6832.0,-0.06996984644695545
6840.0,-0.0456598616244883
6848.0,-0.028065368847355544
6856.0,-0.02347818025164406
6864.0,-0.024194420534480485
6872.0,-0.025318577674225108
6880.0,-0.025709403064548688
6888.0,-0.02564339561092751
6896.0,-0.025604128821940072
6904.0,-0.026167142029744836
6912.0,-0.02775137146052271
6920.0,-0.029040143914166372
6928.0,-0.028961471673198375
6936.0,-0.02992309852271768
6944.0,-0.030247477734601343
6952.0,-0.029065832959444562
6960.0,-0.026621037965828178
6968.0,-0.02610270988088257
6976.0,-0.028937773628357307
6984.0,-0.03362695106730394
6992.0,-0.03737237125727634
7000.0,-0.03979579034680526
7008.0,-0.041210234227095174
7016.0,-0.04173614677949719
7024.0,-0.04366984104649317
7032.0,-0.045355471117325116
7040.0,-0.045354392473822
7048.0,-0.04243868390600071
7056.0,-0.036308932235337855
7064.0,-0.030509656916886452
7072.0,-0.026612889154328953
7080.0,-0.025237271952151558
7088.0,-0.025229972404046782
7096.0,-0.025478516644349223
7104.0,-0.025624548468096118
7112.0,-0.02567942120629471
7120.0,-0.025710514613309976
7128.0,-0.02574998156756074
7136.0,-0.025799069098449548
7144.0,-0.025839416694082483
7152.0,-0.025841646601712155
7160.0,-0.025815510445485194
7168.0,-0.025951172999292654
7176.0,-0.02674359256698313
7184.0,-0.028517666545168963
7192.0,-0.02952180049144191
7200.0,-0.028029544566088454
7208.0,-0.026724253583297213
7216.0,-0.026375996511549593
7224.0,-0.026421108441050632
7232.0,-0.026451839106773394
7240.0,-0.026592046633726732
7248.0,-0.027613395095461846
7256.0,-0.030391769461530826
7264.0,-0.033189260772288516
7272.0,-0.031961552257874955
7280.0,-0.028852424059951053
7288.0,-0.027348028867720284
7296.0,-0.027477026012150338
7304.0,-0.028813059854559765
7312.0,-0.030726919254669274
7320.0,-0.030664793244161964
7328.0,-0.02949411216446317
7336.0,-0.030624065628768658
7344.0,-0.03358477318986675
7352.0,-0.03523644969446507
7360.0,-0.03461575033074853
7368.0,-0.03194962976093176
7376.0,-0.02957373441559716
7384.0,-0.029158437127307982
7392.0,-0.030406768104741203
7400.0,-0.0323093477303737
7408.0,-0.03220367434607798
7416.0,-0.03153147450955034
7424.0,-0.03357358275090278
7432.0,-0.036313194402125167
7440.0,-0.03473771563398628
7448.0,-0.03284284431167108
7456.0,-0.03345465095337207
7464.0,-0.03324144282328073
7472.0,-0.031720826708178405
7480.0,-0.030964573518700782
7488.0,-0.0310125819326767
7496.0,-0.031526360853371155
7504.0,-0.032197228548097014
7512.0,-0.0323456778691916
7520.0,-0.03688474278240615
7528.0,-0.056632645645025737
7536.0,-0.08108862475226497
7544.0,-0.03013574790860473
7552.0,0.26418297012143177
7560.0,0.8216729733567046
7568.0,1.1168110347442246
7576.0,0.7656325467870874
7584.0,0.2173037148671527
7592.0,-0.04348935505051843
7600.0,-0.08009331963250975
7608.0,-0.054014575519864896
7616.0,-0.03479938564897074
7624.0,-0.02952031965934975
7632.0,-0.030092874966217455
7640.0,-0.03212131159725294
7648.0,-0.03589267581807696
7656.0,-0.04079131167986447
7664.0,-0.04080495773127958
7672.0,-0.03758040989753672
7680.0,-0.03613336994657147
7688.0,-0.03550006630613887
7696.0,-0.034958863217407904
7704.0,-0.03355563659956211
7712.0,-0.03382420615415732
7720.0,-0.03502396403397359
7728.0,-0.036234595074412054
7736.0,-0.03989456579972229
7744.0,-0.04471765994024859
7752.0,-0.04881680947660049
7760.0,-0.04945794093625129
7768.0,-0.04823792698543333
7776.0,-0.04907563765270897
7784.0,-0.05052044824100558
7792.0,-0.051166775032374726
7800.0,-0.05141872700078483
7808.0,-0.051572867531627035
7816.0,-0.05088920590754983
7824.0,-0.04753592477262919
7832.0,-0.04127891119782746
7840.0,-0.035691346720064424
7848.0,-0.03208159386057818
7856.0,-0.030928977339412182
7864.0,-0.030968051382311422
7872.0,-0.03118434298289694
7880.0,-0.0312890236996571
7888.0,-0.03131117362165429
7896.0,-0.03131416289239175
7904.0,-0.03132447212681465
7912.0,-0.03134443468979357
7920.0,-0.031370700711921856
7928.0,-0.031401526037066245
7936.0,-0.03143763669744859
7944.0,-0.031480850041560864
7952.0,-0.031529277613011254
7960.0,-0.031566960172827195
7968.0,-0.031558954080827144
7976.0,-0.03149728001195425
7984.0,-0.031564579457944206
7992.0,-0.03234120239011128
8000.0,-0.03444564376895207
8008.0,-0.036540790509051645
8016.0,-0.036723030336051024
8024.0,-0.03498984526887754
8032.0,-0.0328947030044963
8040.0,-0.03211898358198024
8048.0,-0.03212169309359364
8056.0,-0.03225248062092274
8064.0,-0.032353016747484545
8072.0,-0.0327359387093175
8080.0,-0.033976388771858886
8088.0,-0.03580206359625257
8096.0,-0.035908057278930455
8104.0,-0.035734843403173434
8112.0,-0.03637991766107697
8120.0,-0.03517857828154209
8128.0,-0.03375671488843449
8136.0,-0.03328504821434188
8144.0,-0.03324664561526971
8152.0,-0.033154522913376484
8160.0,-0.033202277021774834
8168.0,-0.034659668831838554
8176.0,-0.039264697785581275
8184.0,-0.045117028601928844
8192.0,-0.04678471289879847
8200.0,-0.0429715715027983
8208.0,-0.03906499863139857
8216.0,-0.03704669819421045
8224.0,-0.03517602647217703
8232.0,-0.03412108289644692
8240.0,-0.03306998757240652
8248.0,-0.032002560304983545
8256.0,-0.0346753187523141
8264.0,-0.04943273009961551
8272.0,-0.07730440113771755
8280.0,-0.07200789310467705
8288.0,0.10776876336213352
8296.0,0.6018296019823202
8304.0,1.1034748843563167
8312.0,1.0245009377485905
8320.0,0.4684799437249644
8328.0,0.04385522209978853
8336.0,-0.08095577267954608
8344.0,-0.07075445960967926
8352.0,-0.044488876888468726
8360.0,-0.03314146890143242
8368.0,-0.03191274126786617
8376.0,-0.03316491760186853
8384.0,-0.03392666435261
8392.0,-0.0340106251726696
8400.0,-0.03380870462302056
8408.0,-0.03354986539562733
8416.0,-0.03340376392973804
8424.0,-0.03375824767514194
8432.0,-0.03505661136983135
8440.0,-0.03629273144503827
8448.0,-0.03518800017916047
8456.0,-0.034387179425629855
8464.0,-0.035411746003364525
8472.0,-0.035439021323850003
8480.0,-0.033399535001950566
8488.0,-0.0319681018473426
8496.0,-0.03225488953300532
8504.0,-0.03527938572210776
8512.0,-0.040275791004461214
8520.0,-0.04153414428466289
8528.0,-0.04050347006385652
8536.0,-0.04067861524903768
8544.0,-0.04120610196182419
8552.0,-0.04108375491435801
8560.0,-0.03810037063252805
8568.0,-0.034064342825837556
8576.0,-0.03124404432569356
8584.0,-0.03037474626936683
8592.0,-0.030342392382535523
8600.0,-0.030396296597249586
8608.0,-0.030353376050923725
8616.0,-0.030250383267343715
8624.0,-0.030136645133206776
8632.0,-0.030030463378352915
8640.0,-0.029932625629760873
8648.0,-0.029840485779452627
8656.0,-0.029752661178701977
8664.0,-0.029668968539226435
8672.0,-0.029589597022477883
8680.0,-0.02951470880088783
8688.0,-0.029444381575732072
8696.0,-0.029378648711650995
8704.0,-0.02931753027934874
8712.0,-0.029261041100701532
8720.0,-0.029209179240936713
8728.0,-0.029161892435199746
8736.0,-0.029119046451984123
8744.0,-0.029080521630136785
8752.0,-0.02904667739216735
8760.0,-0.02901914177947739
8768.0,-0.029000375480741615
8776.0,-0.028987752260821502
8784.0,-0.028958810013470584
8792.0,-0.028863079813037693
8800.0,-0.028685208612713342
8808.0,-0.028677257816041905
8816.0,-0.029666676835057033
8824.0,-0.032584178871664586
8832.0,-0.035410932850252645
8840.0,-0.033357885470403255
8848.0,-0.03012459333621308
8856.0,-0.02880587515832378
8864.0,-0.028713106033134733
8872.0,-0.02890484069024771
8880.0,-0.029031013202584346
8888.0,-0.02907772934826656
8896.0,-0.02909723167599082
8904.0,-0.029117595493164963
8912.0,-0.029143681580816882
8920.0,-0.029172936101793567
8928.0,-0.029203074415446357
8936.0,-0.029233212635701604
8944.0,-0.029263091002183852
8952.0,-0.029292350186804664
8960.0,-0.029320092062551043
8968.0,-0.029345026059994384
8976.0,-0.02936757072173211
8984.0,-0.02939516865914587
8992.0,-0.029445585820679767
9000.0,-0.029525282445821994
9008.0,-0.029546881371825554
9016.0,-0.029215044605880994
9024.0,-0.028180531595515312
9032.0,-0.027162364776190988
9040.0,-0.03031904771488332
9048.0,-0.04556552293841446
9056.0,-0.07149596526721866
9064.0,-0.05737328513643591
9072.0,0.136891268879734
9080.0,0.6202741110915148
9088.0,1.025389571212356
9096.0,0.8146300309651473
9104.0,0.28535713381043604
9112.0,-0.015034797618964663
9120.0,-0.07542240024182983
9128.0,-0.05434836745107358
9136.0,-0.03360891974686389
9144.0,-0.026837863870639942
9152.0,-0.026932311749210094
9160.0,-0.028057703361277036
9168.0,-0.02852769754459387
9176.0,-0.028497712901031022
9184.0,-0.028329010265274575
9192.0,-0.028164045607525966
9200.0,-0.027991942871397956
9208.0,-0.027786266885305194
9216.0,-0.027665194665427086
9224.0,-0.028052553854911635
9232.0,-0.029431558597910634
9240.0,-0.030741059598602734
9248.0,-0.029388774552531065
9256.0,-0.027461104571809235
9264.0,-0.026699991419195292
9272.0,-0.02755823252180686
9280.0,-0.030525748826730002
9288.0,-0.03402267523405052
9296.0,-0.03682316060374492
9304.0,-0.0401851543560992
9312.0,-0.04286484875269669
9320.0,-0.04507991010606391
9328.0,-0.04473480206006586
9336.0,-0.04163653154095531
9344.0,-0.03738940660287928
9352.0,-0.031888143773887115
9360.0,-0.027227327965056624
9368.0,-0.025415835585519023
9376.0,-0.025256360183344977
9384.0,-0.02543711060353432
9392.0,-0.025509571471146332
9400.0,-0.025474083536633687
9408.0,-0.02540693384442875
9416.0,-0.025345940499903335
9424.0,-0.025296985346448954
9432.0,-0.02525662306506505
9440.0,-0.02522220232613306
9448.0,-0.025193039271263536
9456.0,-0.02516928510243179
9464.0,-0.02515116186653343
9472.0,-0.025138763372560113
9480.0,-0.025132073736207947
9488.0,-0.025131045117281176
9496.0,-0.025135809331653325
9504.0,-0.02514707871215265
9512.0,-0.02516617261486927
9520.0,-0.025192745505410057
9528.0,-0.025217965409223463
9536.0,-0.025217997284769953
9544.0,-0.025175144956943098
9552.0,-0.02517801532437558
9560.0,-0.025589968281674803
9568.0,-0.026949666055624922
9576.0,-0.02869510185864628
9584.0,-0.02808305598997049
9592.0,-0.02640118987651393
9600.0,-0.025664235281414614
9608.0,-0.025639713184147817
9616.0,-0.025811103217746188
9624.0,-0.025961779645196855
9632.0,-0.026071917626725186
9640.0,-0.026168283711961223
9648.0,-0.026267367209381533
9656.0,-0.026372547772082273
9664.0,-0.02648234545154391
9672.0,-0.026595358252781892
9680.0,-0.026712420527282524
9688.0,-0.026837901408424406
9696.0,-0.02697652927953423
9704.0,-0.02711525458419721
9712.0,-0.027187359365634628
9720.0,-0.027073918343848452
9728.0,-0.026819973974825703
9736.0,-0.027256528029859083
9744.0,-0.030547169908049177
9752.0,-0.038135920454407224
9760.0,-0.04535326318449525
9768.0,-0.04820571018518957
9776.0,-0.04848616604512173
9784.0,-0.048225539335576065
9792.0,-0.048123657589470646
9800.0,-0.04819304524753963
9808.0,-0.04837464353764957
9816.0,-0.0487317792026142
9824.0,-0.04926656762591524
9832.0,-0.04929465650940048
9840.0,-0.046735846836029
9848.0,-0.039555821736701746
9856.0,-0.03132914265441437
9864.0,-0.026920284436251753
9872.0,-0.027924819509317265
9880.0,-0.03990364779197673
9888.0,-0.06667846716701581
9896.0,-0.07625664896750504
9904.0,0.052095789689381375
9912.0,0.48246645739905475
9920.0,1.0322889035253795
9928.0,1.0887730211462356
9936.0,0.5848249954482553
9944.0,0.10505229863405405
9952.0,-0.06732967411834992
9960.0,-0.0714561230516479
9968.0,-0.04425474046172599
9976.0,-0.03005188951702027
9984.0,-0.027601692536343064
9992.0,-0.02876626482915026
10000.0,-0.02972589692788971
10008.0,-0.02996684395598578
10016.0,-0.029882952848568962
10024.0,-0.029756637499082986
10032.0,-0.029661335860705254
10040.0,-0.029586673797219853
10048.0,-0.029517911742201527
10056.0,-0.02945278500125961
10064.0,-0.029386624912683068
10072.0,-0.029281723371021338
10080.0,-0.029052566665368887
10088.0,-0.02867765452842524
10096.0,-0.028602934968578693
10104.0,-0.030261492038210852
10112.0,-0.035211371844830135
10120.0,-0.04089057186591434
10128.0,-0.043372932693067884
10136.0,-0.042360255125693934
10144.0,-0.04283924539536402
10152.0,-0.044155856382894515
10160.0,-0.04317851367403853
10168.0,-0.04212721256239014
10176.0,-0.040793141844782735
10184.0,-0.03709762605686889
10192.0,-0.03146304345569919
10200.0,-0.028203646191817165
10208.0,-0.02748775824567168
10216.0,-0.027649814847538298
10224.0,-0.027818333790390608
10232.0,-0.02784406778245663
10240.0,-0.02780082242381608
10248.0,-0.027750622809065116
10256.0,-0.027711770198154153
10264.0,-0.027682898303438078
10272.0,-0.027660298179358337
10280.0,-0.027642427254599082
10288.0,-0.02762920750762266
10296.0,-0.02762091120304235
10304.0,-0.027617728748256753
10312.0,-0.027619743081412972
10320.0,-0.02762699032755969
10328.0,-0.027639494213852575
10336.0,-0.027657272831143262
10344.0,-0.027680336140848662
10352.0,-0.027708683598573317
10360.0,-0.02774230337885762
10368.0,-0.02778117239917467
10376.0,-0.027825256444028123
10384.0,-0.027874510216443486
10392.0,-0.02792887733123216
10400.0,-0.027988290282728905
10408.0,-0.028052670426435472
10416.0,-0.028121927944433057
10424.0,-0.028195961829578186
10432.0,-0.02827465984994197
10440.0,-0.02835789852510663
10448.0,-0.028445543092388517
10456.0,-0.028537447472379924
10464.0,-0.028633454238714256
10472.0,-0.028733394573760167
10480.0,-0.028837088239864955
10488.0,-0.028944343529528613
10496.0,-0.029054957233220297
10504.0,-0.029168714589560003
10512.0,-0.029285389243805304
10520.0,-0.029404743200684175
10528.0,-0.029526526774948814
10536.0,-0.029650478563897725
10544.0,-0.029776325423131956
10552.0,-0.02990378244819479
10560.0,-0.030032552776858096
10568.0,-0.030162327021550684
10576.0,-0.030292782490908186
10584.0,-0.030423584125579706
10592.0,-0.03055439157821538
10600.0,-0.030684874212419954
10608.0,-0.030814712949804035
10616.0,-0.030943516994812147
10624.0,-0.031070569664384755
10632.0,-0.031194575320136506
10640.0,-0.03131442095562438
10648.0,-0.03143288848820931
10656.0,-0.03156302449648232
10664.0,-0.031724853115802504
10672.0,-0.03189817066302365
10680.0,-0.031904207128470814
10688.0,-0.031337444763980364
10696.0,-0.03006538462735582
10704.0,-0.030090001773485708
10712.0,-0.03804073445076566
10720.0,-0.06149134899773437
10728.0,-0.0834550918449248
10736.0,-0.009697088094766321
10744.0,0.3342405975026903
10752.0,0.9028153540786422
10760.0,1.1023532813931944
10768.0,0.670539406909133
10776.0,0.15211898539112548
10784.0,-0.06024181352508465
10792.0,-0.07761424996703825
10800.0,-0.05019111021788285
10808.0,-0.03364142271642819
10816.0,-0.030066108799591092
10824.0,-0.031074775694554614
10832.0,-0.03215139421395549
10840.0,-0.032480495759956984
10848.0,-0.03242459350541808
10856.0,-0.03230227830815233
10864.0,-0.032211335386196666
10872.0,-0.03214650603125146
10880.0,-0.0320832593590394
10888.0,-0.031994004197636754
10896.0,-0.03185433518834617
10904.0,-0.031710759998524296
10912.0,-0.03183707503481561
10920.0,-0.032765001354344486
10928.0,-0.034438281046545824
10936.0,-0.0348959012625253
10944.0,-0.03556728662924535
10952.0,-0.037520110624553536
10960.0,-0.03834647955693625
10968.0,-0.04030078850810739
10976.0,-0.04237812725252645
10984.0,-0.04397409088878867
10992.0,-0.04520036363899906
11000.0,-0.04491874374621133
11008.0,-0.042751989149255716
11016.0,-0.038941854411922695
11024.0,-0.03367178969023283
11032.0,-0.03084039294893638
11040.0,-0.030291322343002972
11048.0,-0.030471117656589147
11056.0,-0.030627860250594136
11064.0,-0.030652253126159993
11072.0,-0.030617757845262585
11080.0,-0.030579387370094337
11088.0,-0.030552003111105397
11096.0,-0.030533704311357688
11104.0,-0.030521072649226263
11112.0,-0.030512775598198254
11120.0,-0.030508762938158563
11128.0,-0.030509258004469724
11136.0,-0.03051439415334598
11144.0,-0.030524205475404787
11152.0,-0.030538683966316104
11160.0,-0.030557809355845147
11168.0,-0.030581554230263812
11176.0,-0.030609881492802155
11184.0,-0.030642742233329377
11192.0,-0.03068007509778795
11200.0,-0.03072180631991424
11208.0,-0.030767849846357817
11216.0,-0.030818107365617818
11224.0,-0.030872468305867096
11232.0,-0.030930809799020534
11240.0,-0.030992996661064382
11248.0,-0.0310588813660142
11256.0,-0.031128304022152865
11264.0,-0.03120109235254516
11272.0,-0.03127706165036521
11280.0,-0.031356014726834636
11288.0,-0.03143774182377729
11296.0,-0.031522020654355803
11304.0,-0.03160861681707313
11312.0,-0.03169728472616464
11320.0,-0.031787767705782975
11328.0,-0.03187979265896369
11336.0,-0.03197305384661997
11344.0,-0.032067196631453326
11352.0,-0.032161865704656394
11360.0,-0.03225694161427275
11368.0,-0.03235294713068136
11376.0,-0.03245084164997235
11384.0,-0.03254901875533086
11392.0,-0.03263575776492631
11400.0,-0.03268483876765343
11408.0,-0.03268725372493666
11416.0,-0.032769877972755865
11424.0,-0.0333547386250717
11432.0,-0.03492617796820776
11440.0,-0.03645050380072589
11448.0,-0.03540369901628244
11456.0,-0.033902466893192734
11464.0,-0.03337016963120352
11472.0,-0.033145524919123086
11480.0,-0.032339827124744376
11488.0,-0.03111190597612117
11496.0,-0.03287231146108468
11504.0,-0.045713082924985486
11512.0,-0.07308011520444133
11520.0,-0.07747638672180064
11528.0,0.0709954288990893
11536.0,0.5306463477523915
11544.0,1.0706563895388235
11552.0,1.0777661094272475
11560.0,0.5454008751089637
11568.0,0.0789308972372147
11576.0,-0.07589712703797306
11584.0,-0.07346033045261667
11592.0,-0.045948966574237624
11600.0,-0.03266647773599177
11608.0,-0.03068824293926173
11616.0,-0.031890992528021814
11624.0,-0.03272901432408329
11632.0,-0.03280798596843775
11640.0,-0.03258132484022425
11648.0,-0.03257368620671774
11656.0,-0.03336686092967679
11664.0,-0.03495322256096826
11672.0,-0.03493338801302335
11680.0,-0.03301120231628659
11688.0,-0.03268111820269572
11696.0,-0.03514329640505972
11704.0,-0.037940566116537906
11712.0,-0.03646686903347908
11720.0,-0.0346192046536102
11728.0,-0.03385093895577723
11736.0,-0.03453429863428132
11744.0,-0.039515426491953616
11752.0,-0.04599670529667413
11760.0,-0.04984894233957456
11768.0,-0.050760616156035845
11776.0,-0.05056755568623387
11784.0,-0.04991836279138406
11792.0,-0.048058618827826194
11800.0,-0.04458589242462469
11808.0,-0.0402342943471657
11816.0,-0.034680940342884416
11824.0,-0.030505975698127356
11832.0,-0.029100873665889072
11840.0,-0.029042753097452252
11848.0,-0.02918525756756451
11856.0,-0.029201871475596747
11864.0,-0.029125236832022006
11872.0,-0.029026991733248738
11880.0,-0.028937196176336357
11888.0,-0.028858663465225625
11896.0,-0.028787761698776122
11904.0,-0.028722271285482572
11912.0,-0.028661751047573094
11920.0,-0.02860637086823995
11928.0,-0.02855627379434744
11936.0,-0.0285115561810646
11944.0,-0.02847263516258477
11952.0,-0.02844064120215442
11960.0,-0.028416571478979406
11968.0,-0.028396716837154327
11976.0,-0.02836436961714139
11984.0,-0.028292573359898758
11992.0,-0.028200957608905525
12000.0,-0.0283059446319998
12008.0,-0.02912384749951679
12016.0,-0.030886936706984534
12024.0,-0.03158027126993026
12032.0,-0.0299159796434545
12040.0,-0.028637070304455434
12048.0,-0.02830533762190308
12056.0,-0.02838190572754594
12064.0,-0.028503199830229062
12072.0,-0.028580396797205084
12080.0,-0.028630975107916044
12088.0,-0.02867855066182592
12096.0,-0.028731735512861994
12104.0,-0.028790656223246027
12112.0,-0.028853776405980754
12120.0,-0.028920161244857308
12128.0,-0.028989423362385858
12136.0,-0.029061284842401777
12144.0,-0.029135419725511695
12152.0,-0.029211753142490908
12160.0,-0.02929122627241376
12168.0,-0.02937605890343268
12176.0,-0.02946608772727924
12184.0,-0.029546570422381773
12192.0,-0.029574190586483036
12200.0,-0.029508054854206944
12208.0,-0.029482613821487366
12216.0,-0.030131164175825557
12224.0,-0.032509710810363364
12232.0,-0.036106678186019
12240.0,-0.037943264806001985
12248.0,-0.036292990332673435
12256.0,-0.03542215150423106
12264.0,-0.036979591764140785
12272.0,-0.03688134506929206
12280.0,-0.037450809697085946
12288.0,-0.03571555601126289
12296.0,-0.03224408935381443
12304.0,-0.030188183766278406
12312.0,-0.028791987833431374
12320.0,-0.02814527687849796
12328.0,-0.03299739979842023
12336.0,-0.05183280051468976
12344.0,-0.07901584048664849
12352.0,-0.04772344132548081
12360.0,0.20401531145985638
12368.0,0.7549936719621938
12376.0,1.142397976075743
12384.0,0.8842119114239114
12392.0,0.30925794821789415
12400.0,-0.01572682985796707
12408.0,-0.08085136361490336
12416.0,-0.05796875804437768
12424.0,-0.035535954349654605
12432.0,-0.028237238995857686
12440.0,-0.028362065290441336
12448.0,-0.02959573032821867
12456.0,-0.03011827886961154
12464.0,-0.030096091601367468
12472.0,-0.02990851436995255
12480.0,-0.02969584809011166
12488.0,-0.02947688058315621
12496.0,-0.029393650184696973
12504.0,-0.029891981011567023
12512.0,-0.0313532648032213
12520.0,-0.03239766888363644
12528.0,-0.031917705005623555
12536.0,-0.03267560772685239
12544.0,-0.03429540140290654
12552.0,-0.037632318116936125
12560.0,-0.04113976388787402
12568.0,-0.04173865083393146
12576.0,-0.03829038594296698
12584.0,-0.03744793942636948
12592.0,-0.04176319232584937
12600.0,-0.04631145513308193
12608.0,-0.047888066583344914
12616.0,-0.04715895416632422
12624.0,-0.04457831620460212
12632.0,-0.040864886097437166
12640.0,-0.03489635193859196
12648.0,-0.029030594599670043
12656.0,-0.026687599442500626
12664.0,-0.02645813875415542
12672.0,-0.02668244968208964
12680.0,-0.02677632119033207
12688.0,-0.026732014242209664
12696.0,-0.026644768625128906
12704.0,-0.026563215571031206
12712.0,-0.02649539640571056
12720.0,-0.026437126893329204
12728.0,-0.02638504467045804
12736.0,-0.026338258452868343
12744.0,-0.026296956326824644
12752.0,-0.026261434726412007
12760.0,-0.02623185379044316
12768.0,-0.026208280698622362
12776.0,-0.026190752580162714
12784.0,-0.026179300405682525
12792.0,-0.026173950143312218
12800.0,-0.026174719283007318
12808.0,-0.026181614928536236
12816.0,-0.026194633428607984
12824.0,-0.026213760532304838
12832.0,-0.026238971507465386
12840.0,-0.026270231157127837
12848.0,-0.0263074937524532
12856.0,-0.026350702991288295
12864.0,-0.0263997922366348
12872.0,-0.02645468534814447
12880.0,-0.026515297679863454
12888.0,-0.026581533955206786
12896.0,-0.026653276179199718
12904.0,-0.026730360660785175
12912.0,-0.026812582186189957
12920.0,-0.02689984130833218
12928.0,-0.02699255090516759
12936.0,-0.02709195395345897
12944.0,-0.027198656443398576
12952.0,-0.027306470085864332
12960.0,-0.02739304300881344
12968.0,-0.027428850729370194
12976.0,-0.027458593788039852
12984.0,-0.027786307663581936
12992.0,-0.029036015127770928
13000.0,-0.0312373808348991
13008.0,-0.03220518049138706
13016.0,-0.03215578655194941
13024.0,-0.03086757038634009
13032.0,-0.029763257205909843
13040.0,-0.03129211156095866
13048.0,-0.03382835938199602
13056.0,-0.03379769814646402
13064.0,-0.031448098432334086
13072.0,-0.030498416669738623
13080.0,-0.032094065593642605
13088.0,-0.03349095586953865
13096.0,-0.03371308817094229
13104.0,-0.032627937264228704
13112.0,-0.030542461590016376
13120.0,-0.030174808488823732
13128.0,-0.03267770105598524
13136.0,-0.03738142027671746
13144.0,-0.03913613821895854
13152.0,-0.037465971487692935
13160.0,-0.03738005001576758
13168.0,-0.03622965166652942
13176.0,-0.032852185436277305
13184.0,-0.03137429190472667
13192.0,-0.03211818186999572
13200.0,-0.03330974606129368
13208.0,-0.0317789330320818
13216.0,-0.03074759863282264
13224.0,-0.040151900499574435
13232.0,-0.06624738879092713
13240.0,-0.08232802739165207
13248.0,0.025488654341669578
13256.0,0.43424722418751616
13264.0,1.0203412365120637
13272.0,1.16837153211188
13280.0,0.7027876197052901
13288.0,0.1627447929466102
13296.0,-0.05966045810737983
13304.0,-0.07837730144557181
13312.0,-0.04988789907359387
13320.0,-0.032542964272850486
13328.0,-0.028719427144750915
13336.0,-0.029701278946247224
13344.0,-0.030767087396056877
13352.0,-0.031054021325301467
13360.0,-0.030936082920672195
13368.0,-0.030745000973543865
13376.0,-0.03058238144205259
13384.0,-0.03044405029866414
13392.0,-0.03031364617996132
13400.0,-0.030183746007607853
13408.0,-0.030037409720637658
13416.0,-0.029822119663754004
13424.0,-0.029478059842210143
13432.0,-0.029146210587697435
13440.0,-0.02959658942378876
13448.0,-0.03225195042347368
13456.0,-0.036788979849769324
13464.0,-0.038870093864737804
13472.0,-0.0395402935952539
13480.0,-0.04033958579234884
13488.0,-0.04061049512146705
13496.0,-0.04213618048066509
13504.0,-0.0430814807810019
13512.0,-0.04326240813655118
13520.0,-0.04242860059631087
13528.0,-0.03889333892040089
13536.0,-0.032849471800524555
13544.0,-0.02821788935094693
13552.0,-0.026723758698621473
13560.0,-0.02667260701065959
13568.0,-0.026806749309104802
13576.0,-0.026790438684396567
13584.0,-0.026670617370709984
13592.0,-0.026527651555263692
13600.0,-0.026393511159401598
13608.0,-0.026270532158766284
13616.0,-0.02615455093315377
13624.0,-0.02604320480410641
13632.0,-0.025936118702348097
13640.0,-0.025833589585626763
13648.0,-0.025735903877925886
13656.0,-0.025643221724744304
13664.0,-0.025555635599507767
13672.0,-0.025473218945741144
13680.0,-0.02539604039083042
13688.0,-0.025324162551944848
13696.0,-0.02525763906357016
13704.0,-0.025196513317306532
13712.0,-0.025140818365291348
13720.0,-0.02509057709973996
13728.0,-0.025045802370342547
13736.0,-0.0250064970326567
13744.0,-0.024972653952493724
13752.0,-0.024944256023790454
13760.0,-0.024921276171421956
13768.0,-0.024903677369014394
13776.0,-0.024891412644266985
13784.0,-0.024884425088073522
13792.0,-0.02488264786445925
13800.0,-0.024886004211861643
13808.0,-0.0248944074445301
13816.0,-0.024907760902253006
13824.0,-0.024925957876865183
13832.0,-0.0249488816070054
13840.0,-0.024976405762743664
13848.0,-0.02500839581182099
13856.0,-0.025044710165049087
13864.0,-0.025085195430018088
13872.0,-0.02512966568710484
13880.0,-0.02517787002431854
13888.0,-0.025229519498976217
13896.0,-0.02528455766924608
13904.0,-0.0253437921619668
13912.0,-0.025409143961454987
13920.0,-0.025480656906746224
13928.0,-0.02554626885620527
13936.0,-0.025569599287803137
13944.0,-0.025514507232027535
13952.0,-0.02548883862727484
13960.0,-0.026020242875962402
13968.0,-0.028013297504223985
13976.0,-0.03116562801757558
13984.0,-0.03426004674885994
13992.0,-0.03783279934414986
14000.0,-0.03837304801298323
14008.0,-0.032641215375192816
14016.0,-0.02759838545426501
14024.0,-0.026804764120144955
14032.0,-0.028727244068254432
14040.0,-0.029706178152041723
14048.0,-0.028049128718592067
14056.0,-0.02614085057530958
14064.0,-0.024584768103893782
14072.0,-0.025331428559474675
14080.0,-0.03487603047965198
14088.0,-0.058640913912828045
14096.0,-0.07241058240036374
14104.0,0.02711702790741645
14112.0,0.39631475946251143
14120.0,0.8916238295899039
14128.0,0.8932546403777353
14136.0,0.4080046893900733
14144.0,0.03790456005050892
14152.0,-0.06869243922754842
14160.0,-0.05876339998005529
14168.0,-0.035763079710094105
14176.0,-0.026028855011922123
14184.0,-0.02505671725528928
14192.0,-0.026145546572679423
14200.0,-0.02685636284849414
14208.0,-0.027453803324738794
14216.0,-0.028782557942134156
14224.0,-0.030129400951727836
14232.0,-0.029048392164864455
14240.0,-0.027888942638903607
14248.0,-0.02872128283946438
14256.0,-0.030003933225516366
14264.0,-0.028793877809880703
14272.0,-0.02712406187925389
14280.0,-0.02634029150644676
14288.0,-0.026347096279914304
14296.0,-0.027574696122048752
14304.0,-0.030616631905800506
14312.0,-0.03302179086238597
14320.0,-0.033084601391916185
14328.0,-0.036087211311935194
14336.0,-0.03991690414450932
14344.0,-0.04212162804907215
14352.0,-0.042842580105806556
14360.0,-0.04064292951144573
14368.0,-0.03611227605160333
14376.0,-0.03362542782125229
14384.0,-0.02997287870138752
14392.0,-0.026914013219771646
14400.0,-0.026279156208559175
14408.0,-0.027548098978496912
14416.0,-0.029485704166481528
14424.0,-0.02912478523071239
14432.0,-0.02737082864263877
14440.0,-0.026495102038868276
14448.0,-0.02637916115233734
14456.0,-0.026493863705653146
14464.0,-0.0265970839247812
14472.0,-0.02665862766617157
14480.0,-0.02670457601961676
14488.0,-0.02675298326081177
14496.0,-0.026808373231208216
14504.0,-0.02686991322560691
14512.0,-0.0269364061214758
14520.0,-0.027007374184272463
14528.0,-0.027082751058363205
14536.0,-0.027162544962322486
14544.0,-0.027246724016228033
14552.0,-0.027335216535114927
14560.0,-0.027427930551251156
14568.0,-0.02752476345029766
14576.0,-0.027625603393066876
14584.0,-0.027730328367028576
14592.0,-0.027838805451341993
14600.0,-0.02795089058097086
14608.0,-0.028066428530455274
14616.0,-0.02818525286622548
14624.0,-0.028307185845471875
14632.0,-0.028432038341195724
14640.0,-0.02855961022480439
14648.0,-0.02868969168330049
14656.0,-0.028822064652806654
14664.0,-0.02895649903162334
14672.0,-0.029092732900867436
14680.0,-0.029230437008310087
14688.0,-0.029369227074213747
14696.0,-0.029508909392227452
14704.0,-0.029650125659546823
14712.0,-0.029794788230225345
14720.0,-0.029943554041320465
14728.0,-0.030085857568498187
14736.0,-0.030185725131733496
14744.0,-0.03019901101628497
14752.0,-0.03020742124483483
14760.0,-0.03070899193444552
14768.0,-0.03267526291352626
14776.0,-0.03601474962841374
14784.0,-0.03685768578955755
14792.0,-0.0340173669856805
14800.0,-0.031717016221401516
14808.0,-0.031120960874044038
14816.0,-0.031308743476697466
14824.0,-0.03162121923272591
14832.0,-0.03184362361369531
14840.0,-0.031782444246703415
14848.0,-0.031056287753391823
14856.0,-0.02973965624031018
14864.0,-0.030502615545693633
14872.0,-0.04080680759008636
14880.0,-0.06672199439653448
14888.0,-0.0819564769090475
14896.0,0.026067842930289176
14904.0,0.4302123242900608
14912.0,0.9951354721512886
14920.0,1.098023645761456
14928.0,0.6080388379598948
14936.0,0.11358316573323574
14944.0,-0.06855972435109188
14952.0,-0.07494805612556948
14960.0,-0.0471871283104712
14968.0,-0.032307408390829774
14976.0,-0.02959284386845387
14984.0,-0.03071963657671092
14992.0,-0.03168191661351956
15000.0,-0.031907040980270224
15008.0,-0.031790595660435246
15016.0,-0.031626109887227666
15024.0,-0.03149228759750822
15032.0,-0.03137854364148674
15040.0,-0.031266782570413244
15048.0,-0.031151251461704617
15056.0,-0.031034789176669433
15064.0,-0.030920310918632735
15072.0,-0.03079609659700153
15080.0,-0.03061687974093047
15088.0,-0.03032422398827074
15096.0,-0.030016756495715086
15104.0,-0.030328983577112813
15112.0,-0.03253469603268803
15120.0,-0.03681575622922948
15128.0,-0.041448863758330554
15136.0,-0.04359911808217183
15144.0,-0.0428966966419968
15152.0,-0.041024426439183206
15160.0,-0.03971365967565334
15168.0,-0.03993120361422604
15176.0,-0.0400235349272807
15184.0,-0.036240573791702174
15192.0,-0.030948830327730468
15200.0,-0.028547674488853134
15208.0,-0.02817966967055231
15216.0,-0.02833147806696322
15224.0,-0.028398290586779715
15232.0,-0.028337271687477298
15240.0,-0.028229761278151886
15248.0,-0.028123455755690585
15256.0,-0.028028277602690936
15264.0,-0.027941131801718384
15272.0,-0.02785886959196688
15280.0,-0.027780514591785883
15288.0,-0.02770616976030656
15296.0,-0.027636096525094144
15304.0,-0.027570444585705605
15312.0,-0.02750927393814816
15320.0,-0.027452611643698742
15328.0,-0.02740047626539127
15336.0,-0.027352880360652414
15344.0,-0.027309827581202376
15352.0,-0.02727131083875268
15360.0,-0.027237311886449945
15368.0,-0.027207801442959593
15376.0,-0.027182739305715808
15384.0,-0.027162074362095397
15392.0,-0.02714574458475054
15400.0,-0.02713367724534128
15408.0,-0.02712578966604075
15416.0,-0.0271219900971437
15424.0,-0.027122175934507466
15432.0,-0.02712622326849075
15440.0,-0.027133966954281337
15448.0,-0.027145203891616825
15456.0,-0.02715982037694318
15464.0,-0.027178144235093602
15472.0,-0.02720122466920186
15480.0,-0.027229571721647406
15488.0,-0.027257819059441506
15496.0,-0.027266577705615844
15504.0,-0.02723004852970418
15512.0,-0.027186423353703058
15520.0,-0.02739850513234669
15528.0,-0.028408350550591342
15536.0,-0.030249048399524147
15544.0,-0.030521110053398567
15552.0,-0.028778367194828614
15560.0,-0.02768422068365291
15568.0,-0.02746831870712435
15576.0,-0.027568403526955894
15584.0,-0.027647548254337254
15592.0,-0.027632533628740415
15600.0,-0.027654039419669336
15608.0,-0.02811808528941595
15616.0,-0.029516862514978696
15624.0,-0.031028522999193484
15632.0,-0.030394811703269308
15640.0,-0.030074226632641116
15648.0,-0.031086477602575113
15656.0,-0.030335179473156035
15664.0,-0.028721563782742394
15672.0,-0.028054125715787494
15680.0,-0.02800628981038938
15688.0,-0.02780023443994054
15696.0,-0.026804997246071525
15704.0,-0.025456815618770372
15712.0,-0.02765617828409572
15720.0,-0.04207779286922961
15728.0,-0.07117108901149652
15736.0,-0.07106775773339198
15744.0,0.10088754106592349
15752.0,0.596755068235527
15760.0,1.1226523733413103
15768.0,1.0791970817083751
15776.0,0.5234157560192194
15784.0,0.06929462301129913
15792.0,-0.07280197465455336
15800.0,-0.06611874858539314
15808.0,-0.038627663775058
15816.0,-0.026037069007804316
15824.0,-0.02436144003828383
15832.0,-0.025563747856426074
15840.0,-0.026338038593127777
15848.0,-0.026408941141898613
15856.0,-0.0262000047333941
15864.0,-0.02596903460365046
15872.0,-0.02577899209168781
15880.0,-0.025633523932401897
15888.0,-0.025530962557913615
15896.0,-0.025397536473329298
15904.0,-0.024944677320494598
15912.0,-0.02373305385638967
15920.0,-0.022179485607444767
15928.0,-0.024102654403437222
15936.0,-0.03820660224755194
15944.0,-0.0676934983477858
15952.0,-0.09086070087707156
15960.0,-0.09408357085229525
15968.0,-0.08958310077453185
15976.0,-0.08497149037080837
15984.0,-0.08250492201836518
15992.0,-0.0815621099098698
16000.0,-0.08033005275431723
16008.0,-0.07887040538517576
16016.0,-0.07933858273078734
16024.0,-0.07933302870152856
16032.0,-0.07745380629699392
16040.0,-0.07457024080338506
16048.0,-0.07013321294703245
16056.0,-0.06412801103891638
16064.0,-0.053707678165943365
16072.0,-0.03837248498519738
16080.0,-0.0259907892421071
16088.0,-0.021434577342675086
16096.0,-0.021242023013471695
16104.0,-0.021901680513959822
16112.0,-0.02224921673597847
16120.0,-0.022303074542274544
16128.0,-0.022269764764586145
16136.0,-0.022248542993783336
16144.0,-0.022253536358642956
16152.0,-0.022274903467655663
16160.0,-0.022305337958119897
16168.0,-0.02234285111752484
16176.0,-0.022387655011069797
16184.0,-0.022440143540999925
16192.0,-0.02250042168249332
16200.0,-0.022568414064088185
16208.0,-0.022643999992765926
16216.0,-0.022727064690755795
16224.0,-0.022817502941237747
16232.0,-0.02291519898473163
16240.0,-0.023019970487887384
16248.0,-0.023131489285845637
16256.0,-0.023249359152542698
16264.0,-0.023373804705870745
16272.0,-0.023507231119568858
16280.0,-0.023654712501934794
16288.0,-0.02381623276299908
16296.0,-0.02396113444499401
16304.0,-0.023999134171527013
16312.0,-0.023846490714642885
16320.0,-0.02378970504344209
16328.0,-0.025159822773602725
16336.0,-0.03015568128325723
16344.0,-0.03735534943855337
16352.0,-0.03588082688617681
16360.0,-0.02891164797443341
16368.0,-0.02547322329356741
16376.0,-0.025083914475103893
16384.0,-0.02560885795969763
16392.0,-0.026071514196034266
16400.0,-0.02634987447801391
16408.0,-0.026548738496426194
16416.0,-0.026740452028046754
16424.0,-0.026942900759071336
16432.0,-0.02715280373048595
16440.0,-0.027366148878377308
16448.0,-0.027581583065455856
16456.0,-0.027794502881052507
16464.0,-0.027987839594762802
16472.0,-0.028136109462435957
16480.0,-0.028264926400574764
16488.0,-0.028598635124859134
16496.0,-0.029639920787076873
16504.0,-0.0315330220476082
16512.0,-0.032202620261113125
16520.0,-0.031078954821035353
16528.0,-0.03143628096970792
16536.0,-0.03296029586777809
16544.0,-0.032346395909124026
16552.0,-0.030656418721856624
16560.0,-0.029195222856777246
16568.0,-0.027957931051859793
16576.0,-0.02975172675711077
16584.0,-0.042297271622029085
16592.0,-0.06934035333982531
16600.0,-0.07521860257245415
16608.0,0.06641819747001461
16616.0,0.5145676360452326
16624.0,1.0617478862668637
16632.0,1.1023462667337076
16640.0,0.5898738705552017
16648.0,0.10443096065535562
16656.0,-0.06951501385262457
16664.0,-0.07344630233718201
16672.0,-0.04590182457745039
16680.0,-0.031595403991777835
16688.0,-0.029175849573095644
16696.0,-0.030398976659325987
16704.0,-0.031406839017338616
16712.0,-0.031685522485399686
16720.0,-0.03163517868572128
16728.0,-0.03154153754770505
16736.0,-0.03147914448731841
16744.0,-0.03143772696189448
16752.0,-0.031400394105917336
16760.0,-0.03135688713605818
16768.0,-0.0312908309833178
16776.0,-0.031177196297316086
16784.0,-0.03103665282170673
16792.0,-0.031083323624896186
16800.0,-0.03182613711066418
16808.0,-0.033491445890971645
16816.0,-0.03448920110298777
16824.0,-0.03564658999589905
16832.0,-0.039006314721855784
16840.0,-0.043408051756986386
16848.0,-0.04652171553476179
16856.0,-0.049212198431567766
16864.0,-0.05047962703429491
16872.0,-0.049989812424082694
16880.0,-0.04765643713515892
16888.0,-0.04408539406648351
16896.0,-0.03825637011992804
16904.0,-0.03235274972170107
16912.0,-0.029962191046795598
16920.0,-0.029752305464968497
16928.0,-0.030030699396275444
16936.0,-0.03018359806479862
16944.0,-0.03019410937785762
16952.0,-0.030157963296867683
16960.0,-0.030125566749295837
16968.0,-0.030105754464075863
16976.0,-0.030094421037095264
16984.0,-0.03008809778693712
16992.0,-0.030085814985033477
17000.0,-0.030087726198381064
17008.0,-0.03009410963731241
17016.0,-0.03010510670975521
17024.0,-0.0301207618535408
17032.0,-0.03014108649675505
17040.0,-0.03016608407419924
17048.0,-0.030195751543127657
17056.0,-0.03023007589083669
17064.0,-0.03026903214391348
17072.0,-0.03031258295284354
17080.0,-0.03036067872828792
17088.0,-0.030413257749782308
17096.0,-0.030470246199931897
17104.0,-0.030531558135159988
17112.0,-0.03059709546025452
17120.0,-0.030666747902427717
17128.0,-0.030740392977993216
17136.0,-0.030817895950581584
17144.0,-0.03089910974534675
17152.0,-0.030983874919755565
17160.0,-0.031072019870809733
17168.0,-0.031163361593855216
17176.0,-0.031257706462215304
17184.0,-0.03135484795806607
17192.0,-0.03145455529247494
17200.0,-0.031556553321670136
17208.0,-0.03166053094929478
17216.0,-0.03176628386494923
17224.0,-0.03187408165102058
17232.0,-0.031984900359210235
17240.0,-0.03209893355948251
17248.0,-0.032209876935451014
17256.0,-0.0322969900039326
17264.0,-0.03233560644296949
17272.0,-0.0323747459826388
17280.0,-0.03270156225426099
17288.0,-0.033865279269545044
17296.0,-0.03577498436865096
17304.0,-0.03587927889346443
17312.0,-0.03417691278445581
17320.0,-0.03322011806691698
17328.0,-0.033110947650372695
17336.0,-0.03332037824588189
17344.0,-0.033549694899816206
17352.0,-0.03359370832020002
17360.0,-0.03308546812597963
17368.0,-0.03181939616218362
17376.0,-0.03144567862615533
17384.0,-0.038100536531967516
17392.0,-0.060023233253064606
17400.0,-0.085084571619367
17408.0,-0.029315185785368587
17416.0,0.2804524242801619
17424.0,0.8511319241808711
17432.0,1.1295151071832428
17440.0,0.7677422183675513
17448.0,0.22125948804455356
17456.0,-0.0427107221315339
17464.0,-0.08157392682154424
17472.0,-0.056038911152651895
17480.0,-0.036768117618990806
17488.0,-0.03150977133650937
17496.0,-0.03213248473075777
17504.0,-0.033289526971596144
17512.0,-0.03371057229055952
17520.0,-0.03367401315605027
17528.0,-0.0335344245454766
17536.0,-0.03341963157391399
17544.0,-0.03332414086727263
17552.0,-0.03320418392763858
17560.0,-0.03303480381615118
17568.0,-0.0329144250366779
17576.0,-0.03322422692276173
17584.0,-0.03448679902643932
17592.0,-0.03599865857216439
17600.0,-0.03499332533337485
17608.0,-0.033044728265800904
17616.0,-0.03245468818291795
17624.0,-0.03381712774460798
17632.0,-0.0368676038835387
17640.0,-0.041655354556021075
17648.0,-0.04827938688200613
17656.0,-0.05179839537804458
17664.0,-0.05129487302143981
17672.0,-0.04774578682683402
17680.0,-0.0432328041820764
17688.0,-0.03917312584816234
17696.0,-0.036716009110357044
17704.0,-0.0352396497715645
17712.0,-0.03306044176978411
17720.0,-0.031654163076502186
17728.0,-0.031287948062327625
17736.0,-0.03131463930295802
17744.0,-0.031362891940852025
17752.0,-0.03135836649450589
17760.0,-0.03132731273768295
17768.0,-0.03129538782936352
17776.0,-0.031270908355846956
17784.0,-0.03125368750505745
17792.0,-0.031242254558335257
17800.0,-0.031235937158435808
17808.0,-0.03123466741527343
17816.0,-0.03123853349735588
17824.0,-0.031247589923464707
17832.0,-0.03126183967435476
17840.0,-0.031281257505608895
17848.0,-0.031305804505016945
17856.0,-0.03133543136123949
17864.0,-0.031370077509434366
17872.0,-0.03140967013521654
17880.0,-0.03145412383143586
17888.0,-0.031503340568384115
17896.0,-0.03155720974214501
17904.0,-0.031615608175962207
17912.0,-0.03167840010833143
17920.0,-0.03174543716946557
17928.0,-0.031816558350608815
17936.0,-0.03189158997188509
17944.0,-0.03197034560522591
17952.0,-0.03205262601582254
17960.0,-0.032138219231365776
17968.0,-0.032226901078560286
17976.0,-0.032318436126780065
17984.0,-0.03241257721855652
17992.0,-0.03250905837669279
18000.0,-0.03260757665762132
18008.0,-0.03270778093544545
18016.0,-0.03280934579756067
18024.0,-0.032912253479259045
18032.0,-0.033017182735335764
18040.0,-0.033124980162545524
18048.0,-0.03323282796419519
18056.0,-0.03332614715677215
18064.0,-0.03337755331652908
18072.0,-0.033391566111404064
18080.0,-0.03354121410785951
18088.0,-0.03430437849691192
18096.0,-0.03605548939028803
18104.0,-0.037220047475632394
18112.0,-0.03581487008749012
18120.0,-0.03445216654281764
18128.0,-0.03410675049581748
18136.0,-0.034262227630009114
18144.0,-0.034326630839910555
18152.0,-0.03377040276107792
18160.0,-0.03245836596687384
18168.0,-0.03239888354955903
18176.0,-0.04025504315266549
18184.0,-0.06376847105349202
18192.0,-0.08635783071653902
18200.0,-0.013846470243885271
18208.0,0.33083358782647937
18216.0,0.9155372938098556
18224.0,1.1560870393123162
18232.0,0.7615734906133206
18240.0,0.20739004824360002
18248.0,-0.04928210226863343
18256.0,-0.08284252869061799
18264.0,-0.05591654799037353
18272.0,-0.03682701723311511
18280.0,-0.03188080794816724
18288.0,-0.03260857267046857
18296.0,-0.03374561183934896
18304.0,-0.034119629874810625
18312.0,-0.03404226692300699
18320.0,-0.03386732011840723
18328.0,-0.033717525542274134
18336.0,-0.03359420342989744
18344.0,-0.03347808680189446
18352.0,-0.03336068463351795
18360.0,-0.0332408233130842
18368.0,-0.033112400499496354
18376.0,-0.032954885952679126
18384.0,-0.03274967727692213
18392.0,-0.032568866377794665
18400.0,-0.032736023241632384
18408.0,-0.03377302148582671
18416.0,-0.0352995435429891
18424.0,-0.0347689878787461
18432.0,-0.03354854663789361
18440.0,-0.03420780497204183
18448.0,-0.034943076281183434
18456.0,-0.03336226461258124
18464.0,-0.0318736646151287
18472.0,-0.03132056873734817
18480.0,-0.031221735800925115
18488.0,-0.031191601386773418
18496.0,-0.031120791550823777
18504.0,-0.031020681374978498
18512.0,-0.030915581682413262
18520.0,-0.03081575450886971
18528.0,-0.030722290222627523
18536.0,-0.03063410919019715
18544.0,-0.030550603247058904
18552.0,-0.030471757365529394
18560.0,-0.030397762607947843
18568.0,-0.030328803262921797
18576.0,-0.030265017181819134
18584.0,-0.030206512194737956
18592.0,-0.030153380991318524
18600.0,-0.030105705725544416
18608.0,-0.030063557797494495
18616.0,-0.030026996962609166
18624.0,-0.02999607095447473
18632.0,-0.029970815442895204
18640.0,-0.029951254097271313
18648.0,-0.029937398624428388
18656.0,-0.02992924878256686
18664.0,-0.0299267923902931
18672.0,-0.029930005319870372
18680.0,-0.029938851507415678
18688.0,-0.02995328294111767
18696.0,-0.029973239667296078
18704.0,-0.029998649777606717
18712.0,-0.03002942940488579
18720.0,-0.03006548271302018
18728.0,-0.0301067018808621
18736.0,-0.03015296709498702
18744.0,-0.030204146523730584
18752.0,-0.03026009630928711
18760.0,-0.030320660537272053
18768.0,-0.030385671222499272
18776.0,-0.03045494827980907
18784.0,-0.030528299499430565
18792.0,-0.030605520521984834
18800.0,-0.030686394803082703
18808.0,-0.030770693591623988
18816.0,-0.030858175886905138
18824.0,-0.030948588414866834
18832.0,-0.03104166558241468
18840.0,-0.031137129446858758
18848.0,-0.031234689684203103
18856.0,-0.03133404357776011
18864.0,-0.031434876018951244
18872.0,-0.031536859394903846
18880.0,-0.031639653167316484
18888.0,-0.031742903054916366
18896.0,-0.03184624107673622
18904.0,-0.031949290228117315
18912.0,-0.032051677826853406
18920.0,-0.03215304671243675
18928.0,-0.032253009093459836
18936.0,-0.0323509457972393
18944.0,-0.03244569038816624
18952.0,-0.03253579190359468
18960.0,-0.03262214314434547
18968.0,-0.03271411032213326
18976.0,-0.03283196463839376
18984.0,-0.032977787210796694
18992.0,-0.033036273872321845
19000.0,-0.032655964529304075
19008.0,-0.03148759955474152
19016.0,-0.030581875750903487
19024.0,-0.03506337659030007
19032.0,-0.05371859805888211
19040.0,-0.08199280052286229
19048.0,-0.05478228939040914
19056.0,0.19128486537641193
19064.0,0.7463479109956327
19072.0,1.1615553257675943
19080.0,0.9368613906476073
19088.0,0.3499625759531933
19096.0,-0.005438112827044907
19104.0,-0.08432989930964102
19112.0,-0.06310717685854517
19120.0,-0.039161242075116585
19128.0,-0.030833896323343282
19136.0,-0.030704788296830977
19144.0,-0.03198613335225943
19152.0,-0.03257187328325366
19160.0,-0.032571577233876166
19168.0,-0.032396682588321374
19176.0,-0.032227063113169495
19184.0,-0.032065169713115405
19192.0,-0.03186637180715902
19200.0,-0.031664628907538614
19208.0,-0.03174093661770108
19216.0,-0.032647499916511634
19224.0,-0.03432075121852707
19232.0,-0.03422125571137399
19240.0,-0.03221344860798238
19248.0,-0.030840880366440674
19256.0,-0.030398134629648976
19264.0,-0.031045740130792046
19272.0,-0.03352375582046243
19280.0,-0.03690635119669734
19288.0,-0.03913269284387855
19296.0,-0.04208131410094595
19304.0,-0.043692552304214274
19312.0,-0.03997395085443078
19320.0,-0.03528368451874125
19328.0,-0.031787201400788195
19336.0,-0.02968769925462478
19344.0,-0.02910864672417433
19352.0,-0.029099583283727373
19360.0,-0.029117823686996062
19368.0,-0.029055688712470575
19376.0,-0.028952032923082495
19384.0,-0.02884447642139692
19392.0,-0.028745202100477728
19400.0,-0.028653977782814144
19408.0,-0.02856872680627411
19416.0,-0.028488555700151207
19424.0,-0.028413462024957294
19432.0,-0.028343677099857335
19440.0,-0.028279389159203656
19448.0,-0.028220717875216236
19456.0,-0.028167748639656914
19464.0,-0.02812055389560851
19472.0,-0.028079197906271988
19480.0,-0.028043735522868443
19488.0,-0.028014210762868388
19496.0,-0.027990656337587613
19504.0,-0.02797309365433488
19512.0,-0.027961532911901378
19520.0,-0.027955973148922907
19528.0,-0.027956402251485553
19536.0,-0.027962796958190286
19544.0,-0.02797512284815852
19552.0,-0.02799333434743986
19560.0,-0.028017374714881554
19568.0,-0.028047176042482913
19576.0,-0.02808265924110735
19584.0,-0.028123734029796246
19592.0,-0.028170298924775093
19600.0,-0.028222241219618277
19608.0,-0.028279436977099007
19616.0,-0.028341750991629024
19624.0,-0.028409036742800462
19632.0,-0.028481136306506092
19640.0,-0.02855788036823363
19648.0,-0.028639088620145345
19656.0,-0.028724570779911526
19664.0,-0.028814127105278812
19672.0,-0.028907543741455714
19680.0,-0.029004576044172108
19688.0,-0.029104926972932627
19696.0,-0.02920828242527998
19704.0,-0.029314541404402778
19712.0,-0.029424280542737765
19720.0,-0.029538754464521297
19728.0,-0.02965715392884822
19736.0,-0.02976860638303822
19744.0,-0.02984492077383535
19752.0,-0.029866621861415883
19760.0,-0.029941815959145628
19768.0,-0.030499800657875675
19776.0,-0.03215712886625489
19784.0,-0.03423497787772873
19792.0,-0.03470678459837682
19800.0,-0.034522686173750976
19808.0,-0.0327215196450539
19816.0,-0.031236510358445706
19824.0,-0.030871885360062953
19832.0,-0.031041523297395346
19840.0,-0.031307247505184266
19848.0,-0.0314660485931237
19856.0,-0.031234422124462362
19864.0,-0.030255450106144166
19872.0,-0.029183535759565598
19880.0,-0.03216631513068845
19888.0,-0.04753442148174943
19896.0,-0.07517605210918095
19904.0,-0.06562982672003602
19912.0,0.12493193251316669
19920.0,0.6214265054595314
19928.0,1.0804996488854304
19936.0,0.9320284607106744
19944.0,0.3700923246149258
19952.0,0.006545720686229155
19960.0,-0.0811266704851715
19968.0,-0.06291085470226412
19976.0,-0.038999817322950776
19984.0,-0.030219123419075063
19992.0,-0.029897833082112784
20000.0,-0.03120040385011308
20008.0,-0.031869194326554474
20016.0,-0.03194566859300158
20024.0,-0.031833207511873976
20032.0,-0.03172503347502523
20040.0,-0.03164875460827524
20048.0,-0.0315855879301161
20056.0,-0.0315224244555189
20064.0,-0.03145783626087942
20072.0,-0.031394892847149906
20080.0,-0.03132993459175851
20088.0,-0.031236721175958874
20096.0,-0.03106612194269043
20104.0,-0.03083278362920338
20112.0,-0.03087110776305343
20120.0,-0.03207319781461197
20128.0,-0.03507505569250234
20136.0,-0.03782836830258088
20144.0,-0.03999772346078481
20152.0,-0.0443928018420726
20160.0,-0.048924306319494994
20168.0,-0.05077966943391659
20176.0,-0.049962081960297056
20184.0,-0.046399907488401344
20192.0,-0.040835563181613015
20200.0,-0.034401751207298714
20208.0,-0.03059721092028869
20216.0,-0.02972568012453565
20224.0,-0.029914709471616972
20232.0,-0.030134650566452946
20240.0,-0.030192726336403884
20248.0,-0.030168160128818008
20256.0,-0.0301329253434084
20264.0,-0.030109323670247976
20272.0,-0.030096238691049288
20280.0,-0.03008937078137902
20288.0,-0.030086804115350568
20296.0,-0.030088335388370656
20304.0,-0.030094198521148786
20312.0,-0.030104545248158435
20320.0,-0.030119404440323783
20328.0,-0.030138749894601812
20336.0,-0.030162540852207733
20344.0,-0.030190730568691024
20352.0,-0.03022326369381778
20360.0,-0.03026007349992725
20368.0,-0.030301080955870165
20376.0,-0.030346194717953245
20384.0,-0.03039531127630176
20392.0,-0.03044831501758127
20400.0,-0.03050507821055126
20408.0,-0.03056546098614529
20416.0,-0.030629311298722317
20424.0,-0.03069646491196929
20432.0,-0.030766745366922258
20440.0,-0.03083996396255892
20448.0,-0.030915919714279178
20456.0,-0.03099439928639647
20464.0,-0.031075176924087376
20472.0,-0.031158014506346463
20480.0,-0.03124266204714655
20488.0,-0.03132885863671519
20496.0,-0.03141633220639444
20504.0,-0.03150479307105095
20512.0,-0.03159391637661349
20520.0,-0.03168332870440467
20528.0,-0.031772672365063134
20536.0,-0.03186187174019239
20544.0,-0.031951533830283575
20552.0,-0.032042545401629666
20560.0,-0.03213253581518007
20568.0,-0.03220791862233617
20576.0,-0.03224146812292341
20584.0,-0.032232241647679925
20592.0,-0.032336311747375036
20600.0,-0.03301399202032856
20608.0,-0.03468885352642019
20616.0,-0.035983831465107
20624.0,-0.034707975554742566
20632.0,-0.03329445779724783
20640.0,-0.03264294754909711
20648.0,-0.031854839362006754
20656.0,-0.030579250968822955
20664.0,-0.03143931724149702
20672.0,-0.04202026157087152
20680.0,-0.06822940805253676
20688.0,-0.08255523765320091
20696.0,0.030057878023195074
20704.0,0.4425980928744986
20712.0,1.0106637931499525
20720.0,1.1089471273935037
20728.0,0.6150391232476313
20736.0,0.11559977068979345
20744.0,-0.06902204691939899
20752.0,-0.07576460422923743
20760.0,-0.04772967863813448
20768.0,-0.032625208447688445
20776.0,-0.029817024802541087
20784.0,-0.030907098951165914
20792.0,-0.03183886527940274
20800.0,-0.03202715960587473
20808.0,-0.031869965811579526
20816.0,-0.03166416221789648
20824.0,-0.03148978373377759
20832.0,-0.03133638687411557
20840.0,-0.031185447562168973
20848.0,-0.0310299177302847
20856.0,-0.030870622047114486
20864.0,-0.030711748981805644
20872.0,-0.03055712267120252
20880.0,-0.03039945280793074
20888.0,-0.03019974127161358
20896.0,-0.02988960139403325
20904.0,-0.029500614208107
20912.0,-0.029529918713467045
20920.0,-0.031245994127923803
20928.0,-0.03549230377069211
20936.0,-0.0411083177001632
20944.0,-0.04524389190531318
20952.0,-0.04483251099287723
20960.0,-0.04249669433742878
20968.0,-0.03952801196132415
20976.0,-0.03720549761588136
20984.0,-0.03387950577827517
20992.0,-0.03021199168475978
21000.0,-0.028088883372469994
21008.0,-0.027548333782898355
21016.0,-0.027550293611362776
21024.0,-0.027555605323855304
21032.0,-0.027473591659920846
21040.0,-0.027350783751325308
21048.0,-0.02722575122776111
21056.0,-0.02710981028840197
21064.0,-0.027002120306931724
21072.0,-0.026900428476979016
21080.0,-0.026803836161136563
21088.0,-0.026712348762154173
21096.0,-0.02662618242615661
21104.0,-0.026545497459635595
21112.0,-0.026470383558841973
21120.0,-0.026400897757076425
21128.0,-0.02633708576258423
21136.0,-0.026278986115652648
21144.0,-0.026226628640309994
21152.0,-0.026180032999109003
21160.0,-0.026139208239499306
21168.0,-0.026104152838908674
21176.0,-0.02607485480527097
21184.0,-0.026051291732823972
21192.0,-0.026033430821125005
21200.0,-0.026021228874807744
21208.0,-0.026014632315341433
21216.0,-0.026013577176164995
21224.0,-0.02601798911443678
21232.0,-0.026027783404006785
21240.0,-0.026042864939022577
21248.0,-0.02606312822781243
21256.0,-0.02608845738574088
21264.0,-0.02611872613145563
21272.0,-0.026153797769800324
21280.0,-0.026193525188448946
21288.0,-0.02623775083483987
21296.0,-0.02628630670869428
21304.0,-0.026339014338029255
21312.0,-0.026395684762244086
21320.0,-0.026456118509430502
21328.0,-0.026520105570616195
21336.0,-0.02658742539245938
21344.0,-0.02665784687299389
21352.0,-0.02673112836859571
21360.0,-0.026807017554163783
21368.0,-0.026885250955490644
21376.0,-0.026965553219029832
21384.0,-0.02704763767832694
21392.0,-0.02713121215991017
21400.0,-0.027215992514149016
21408.0,-0.02730170776672539
21416.0,-0.027388035255029856
21424.0,-0.027474380771823056
21432.0,-0.027559617501986912
21440.0,-0.02764262155110442
21448.0,-0.027725371500045913
21456.0,-0.027818859531349136
21464.0,-0.027942075856517198
21472.0,-0.02808416118723388
21480.0,-0.028099972162307887
21488.0,-0.02762745657415288
21496.0,-0.02646310610897624
21504.0,-0.026145216130944417
21512.0,-0.03236748586696748
21520.0,-0.052701856487445034
21528.0,-0.07567941619600257
21536.0,-0.023194372264821416
21544.0,0.265409350122343
21552.0,0.7977791680295693
21560.0,1.0244188081717656
21568.0,0.6296678934529704
21576.0,0.14461375353176997
21584.0,-0.05436947392106933
21592.0,-0.07077102082467272
21600.0,-0.045144254158368244
21608.0,-0.029659360928652234
21616.0,-0.026319164586550772
21624.0,-0.027277449598553116
21632.0,-0.028304611963892334
21640.0,-0.028634826494552113
21648.0,-0.02860643522626436
21656.0,-0.02851739559239196
21664.0,-0.028459594853854613
21672.0,-0.028430414920081554
21680.0,-0.028412207507200145
21688.0,-0.028381485420643487
21696.0,-0.028291009723098455
21704.0,-0.02809918749470803
21712.0,-0.027957463686226557
21720.0,-0.028558923677660053
21728.0,-0.031040746469513054
21736.0,-0.034898310567032756
21744.0,-0.03758320127030278
21752.0,-0.036914817694028004
21760.0,-0.03559518698155484
21768.0,-0.037270862966182726
21776.0,-0.03842868446204415
21784.0,-0.037968078476245844
21792.0,-0.03905523185031644
21800.0,-0.04063902442993369
21808.0,-0.04148975223280895
21816.0,-0.03834947247506006
21824.0,-0.03258119762313165
21832.0,-0.02877283639715732
21840.0,-0.02780323485135461
21848.0,-0.02799714977405798
21856.0,-0.02829040104136911
21864.0,-0.028439689979216115
21872.0,-0.028505050451465806
21880.0,-0.028557553593964453
21888.0,-0.028622301556878327
21896.0,-0.028699751072867277
21904.0,-0.028785918392231727
21912.0,-0.02887879603849292
21920.0,-0.02897810005890565
21928.0,-0.029084057890562842
21936.0,-0.02919685042256687
21944.0,-0.0293165408446902
21952.0,-0.02944313410807265
21960.0,-0.029576618333066608
21968.0,-0.02971697526496488
21976.0,-0.02986417837965883
21984.0,-0.03001819012975467
21992.0,-0.030178960835946095
22000.0,-0.030346428521857628
22008.0,-0.030520519056211202
22016.0,-0.03070114657969374
22024.0,-0.030888214405083526
22032.0,-0.031081615203313477
22040.0,-0.031281226153537484
22048.0,-0.03148689331217273
22056.0,-0.031698414216961776
22064.0,-0.0319155788953784
22072.0,-0.03213839224011011
22080.0,-0.0323674806698062
22088.0,-0.03260397160720957
22096.0,-0.03284673930261065
22104.0,-0.03308506691566751
22112.0,-0.03329345136375008
22120.0,-0.03345963900682817
22128.0,-0.03369739454274111
22136.0,-0.03441020211874074
22144.0,-0.03610571431488841
22152.0,-0.037912094448042354
22160.0,-0.03718164521145902
22168.0,-0.03577534690506349
22176.0,-0.03535637273801473
22184.0,-0.03557325655005888
22192.0,-0.035938695136829575
22200.0,-0.03627058723257744
22208.0,-0.03656098663334863
22216.0,-0.036836569859829645
22224.0,-0.037111608220718524
22232.0,-0.037388343336529864
22240.0,-0.037665152512486325
22248.0,-0.03794052451299135
22256.0,-0.03821364851137486
22264.0,-0.038484032856675114
22272.0,-0.038751224299264704
22280.0,-0.03901474302479175
22288.0,-0.03927407981580001
22296.0,-0.03952859564579372
22304.0,-0.03977725782766606
22312.0,-0.04001854861614542
22320.0,-0.04025179206438908
22328.0,-0.0404815841306208
22336.0,-0.04072289061894192
22344.0,-0.040989847608335385
22352.0,-0.04123298719500432
22360.0,-0.041221591573027225
22368.0,-0.04057069199588395
22376.0,-0.039512300829755785
22384.0,-0.0409930610496736
22392.0,-0.05225247127704963
22400.0,-0.07706397479388051
22408.0,-0.08379822127248063
22416.0,0.04223083492791329
22424.0,0.44323737876590563
22432.0,0.8985053604736375
22440.0,0.8058695636966517
22448.0,0.30511024508276285
22456.0,-0.01265065352181632
22464.0,-0.08670254064516536
22472.0,-0.0695002251175449
22480.0,-0.04839744780587342
22488.0,-0.04081483762681235
22496.0,-0.04057391133168727
22504.0,-0.04163335302526808
22512.0,-0.042057083016045084
22520.0,-0.04206006381726828
22528.0,-0.04245792828960962
22536.0,-0.0438482056097279
22544.0,-0.04490457140931367
22552.0,-0.043340225253107996
22560.0,-0.04155356783667198
22568.0,-0.04069843872859968
22576.0,-0.04041970244744675
22584.0,-0.040668707433980475
22592.0,-0.04180748306231749
22600.0,-0.04308635561504119
22608.0,-0.043333100866484495
22616.0,-0.04532019660114925
22624.0,-0.0466865049383819
22632.0,-0.04666894515123775
22640.0,-0.04817490854492568
22648.0,-0.050209280141470185
22656.0,-0.05191641701593383
22664.0,-0.05344454003778496
22672.0,-0.05299064347789272
22680.0,-0.051593743255217435
22688.0,-0.04787076481006235
22696.0,-0.04195730113029493
22704.0,-0.03809039304052924
22712.0,-0.036197941001795304
22720.0,-0.033812291507919146
22728.0,-0.03222242171172985
22736.0,-0.031386495170034744
22744.0,-0.030772804804741934
22752.0,-0.030124194365272847
22760.0,-0.0294031046579762
22768.0,-0.028634130884517866
22776.0,-0.027835476214793247
22784.0,-0.02701161357893503
22792.0,-0.026161289389978967
22800.0,-0.025282733418130757
22808.0,-0.02437488303060626
22816.0,-0.023437107543955397
22824.0,-0.022468863645727605
22832.0,-0.021469571916460314
22840.0,-0.02043861423802546
22848.0,-0.01937535372107933
22856.0,-0.018279145311885816
22864.0,-0.01714933795428708
22872.0,-0.015985274155702424
22880.0,-0.014786289719047952
22888.0,-0.013551713989581668
22896.0,-0.012280870356203327
22904.0,-0.01097307678524454
22912.0,-0.009627646348708238
22920.0,-0.008243887747715513
22928.0,-0.006821105846099976
22936.0,-0.005358602222980575
22944.0,-0.003855675737955209
22952.0,-0.002311623116886841
22960.0,-0.000725739550077999
22968.0,0.0009026806904805733
22976.0,0.0025743436188564134
22984.0,0.004289954884904042
22992.0,0.006050219107696524
23000.0,0.00785583919012341
23008.0,0.009707515619378554
23016.0,0.011605945745842419
23024.0,0.013551823045987463
23032.0,0.015545836347521675
23040.0,0.017588669019652475
23048.0,0.019680998158270943
23056.0,0.021823493925013555
23064.0,0.024016819277581408
23072.0,0.02626162983673662
23080.0,0.0285585718294596
23088.0,0.030908273416284247
23096.0,0.03331132811552935
23104.0,0.03576829380449156
23112.0,0.038279784173312015
23120.0,0.04084673771718676
23128.0,0.043470661636513676
23136.0,0.04615275428526369
23144.0,0.048889893375553724
23152.0,0.051668102105643765
23160.0,0.05446705942826522
23168.0,0.05731187830976623
23176.0,0.06039776344763972
23184.0,0.06414895533239869
23192.0,0.06865667586146297
23200.0,0.07168523009769337
23208.0,0.06616946378964508
23216.0,0.044640878220288185
23224.0,0.026926951522816715
23232.0,0.11506220204078063
23240.0,0.4877549144475021
23248.0,1.0677125352473096
23256.0,1.2388752198754112
23264.0,0.7941551636178467
23272.0,0.2827098579657176
23280.0,0.07658547487126324
23288.0,0.06361045493712436
23296.0,0.0947500867190075
23304.0,0.11504065027544202
23312.0,0.1225051089234972
23320.0,0.12548921986193953
23328.0,0.12846123600482992
23336.0,0.13222038151229978
23344.0,0.1364033300135565
23352.0,0.14069270587213706
23360.0,0.14499077541713984
23368.0,0.1493033116650563
23376.0,0.1536586907996478
23384.0,0.15808878712076346
23392.0,0.1626020169288763
23400.0,0.16707359062512706
23408.0,0.17108943829768622
23416.0,0.17416283891482587
23424.0,0.1772731546680741
23432.0,0.18313609545374893
23440.0,0.18969213380126151
23448.0,0.194382155344524
23456.0,0.19560702297063218
23464.0,0.19341473351427316
23472.0,0.19211279400645773
23480.0,0.19678119282777518
23488.0,0.2069784714357477
23496.0,0.2167086432830771
23504.0,0.2235435567973979
23512.0,0.2290144680338868
23520.0,0.2354139640761637
23528.0,0.24110847695330812
23536.0,0.24599608731759712
23544.0,0.25059286193579894
23552.0,0.2551689774571479
23560.0,0.25976702011778935
23568.0,0.2643610950383184
23576.0,0.2689398174915237
23584.0,0.27352453817036826
23592.0,0.27813236356526655
23600.0,0.2826375872274475
23608.0,0.2865559467475488
23616.0,0.28920196876349336
23624.0,0.29138572419238734
23632.0,0.2964927671896429
23640.0,0.3054095526502046
23648.0,0.32022996031463
23656.0,0.33556164180515324
23664.0,0.31318281260617487
23672.0,0.17403779874754713
23680.0,-0.09364077460741532
23688.0,-0.3233811102704739
23696.0,-0.444620180238298
23704.0,-0.49892605331165624
23712.0,-0.5215520050431719
23720.0,-0.5319211700238682
23728.0,-0.5403309198046502
23736.0,-0.5532455067626972
23744.0,-0.568221359953693
23752.0,-0.5768953515911124
23760.0,-0.5830709981670553
23768.0,-0.5883812030555334
23776.0,-0.5962403171940293
23784.0,-0.6021168532423027
23792.0,-0.5981851631684982
23800.0,-0.5855004058609334
23808.0,-0.5748172883533162
23816.0,-0.571664036026105
23824.0,-0.5760562539672982
23832.0,-0.5833233371671876
23840.0,-0.5866908224402374
23848.0,-0.5862715911332167
23856.0,-0.5848378925103997
23864.0,-0.5849574141071955
23872.0,-0.5892307501635945
23880.0,-0.5971111836465601
23888.0,-0.6024882213053826
23896.0,-0.6039753697810196
23904.0,-0.6039631015177317
23912.0,-0.6039838706744036
23920.0,-0.6043918084082093
23928.0,-0.6050779484676745
23936.0,-0.6058541435529392
23944.0,-0.606571085211406
23952.0,-0.6074017408980692
23960.0,-0.6095218345179362
23968.0,-0.6153211810640826
23976.0,-0.625042398144157
23984.0,-0.6328881814843006
23992.0,-0.6366281124519556
24000.0,-0.6381635814368617
24008.0,-0.6385671611633746
24016.0,-0.6388450490108358
24024.0,-0.6441361178875108
24032.0,-0.6662057290771796
24040.0,-0.7089887127920668
24048.0,-0.7142896768455113
24056.0,-0.49353358250989016
24064.0,0.16959803443226154
24072.0,0.9900838637310115
24080.0,1.1576891881946652
24088.0,0.7060716254702687
24096.0,0.3485394234360204
24104.0,0.23931661661828058
24112.0,0.23763386405764914
24120.0,0.2509850007845224
24128.0,0.25532759814069544
24136.0,0.2526824487144986
24144.0,0.24806278521302993
24152.0,0.24361359607203886
24160.0,0.23954968678164665
24168.0,0.23561652521417828
24176.0,0.23165378818119398
24184.0,0.22762748351214143
24192.0,0.22355018922118136
24200.0,0.21943609541742987
24208.0,0.21529226343988986
24216.0,0.21112183361507014
24224.0,0.2069268606512309
24232.0,0.20270891092931773
24240.0,0.19846955244522504
24248.0,0.194214002899976
24256.0,0.1899591512985327
24264.0,0.18573461479908432
24272.0,0.18153805016687083
24280.0,0.17719845845274734
24288.0,0.17223949554904416
24296.0,0.16628734066399867
24304.0,0.1609169536904579
24312.0,0.15811668625877512
24320.0,0.15529379796908066
24328.0,0.15150665732411248
24336.0,0.1472603294296918
24344.0,0.14292392047755256
24352.0,0.13844875268823661
24360.0,0.13359923297098877
24368.0,0.12869851352483475
24376.0,0.12609039510081346
24384.0,0.13060517193217283
24392.0,0.1429417272678813
24400.0,0.15338366069805331
24408.0,0.15988518190402112
24416.0,0.16264434085245086
24424.0,0.16067917473462137
24432.0,0.15650139392080464
24440.0,0.152116246756054
24448.0,0.14825617495998145
24456.0,0.14497772193161312
24464.0,0.1413272974207345
24472.0,0.13411914674545522
24480.0,0.11909867132524642
24488.0,0.1005256606187718
24496.0,0.08906162172877272
24504.0,0.08191695395555028
24512.0,0.07698134351889223
24520.0,0.07605563564902426
24528.0,0.08207051734972558
24536.0,0.09261546133852472
24544.0,0.09998732425618977
24552.0,0.10040682209377581
24560.0,0.0971482063877972
24568.0,0.09328160087044113
24576.0,0.08938319436168254
24584.0,0.08440945654098995
24592.0,0.07769964956206117
24600.0,0.07137961218388805
24608.0,0.06751350755212528
24616.0,0.06521571430621421
24624.0,0.06147656865630801
24632.0,0.05690625844535302
24640.0,0.052766863799045195
24648.0,0.04717963001554371
24656.0,0.042447075695785
24664.0,0.042609319399971896
24672.0,0.045438318672250386
24680.0,0.04278995202732094
24688.0,0.037402108985705305
24696.0,0.035816435923011425
24704.0,0.03368031320063844
24712.0,0.02720335288371094
24720.0,0.020800519190698915
24728.0,0.018335809427992872
24736.0,0.016058086885332022
24744.0,0.013150386999962784
24752.0,0.012935893102505239
24760.0,0.015317451613079536
24768.0,0.016273656789503106
24776.0,0.01135170685855196
24784.0,0.006758524542982883
24792.0,0.00719580249701968
24800.0,0.00698896311884474
24808.0,0.0032733993303486323
24816.0,-0.0007598889071032835
24824.0,-0.0062956354092399015
24832.0,-0.010977867568136498
24840.0,-0.013648979748322066
24848.0,-0.014738660206216088
24856.0,-0.012435449455114106
24864.0,-0.010800836464790497
24872.0,-0.013650180075359442
24880.0,-0.019828385256803405
24888.0,-0.025585458350574405
24896.0,-0.02644496566941121
24904.0,-0.02203007098137699
24912.0,-0.01807341177920232
24920.0,-0.0216787941698169
24928.0,-0.04103118552177557
24936.0,-0.06935241615478087
24944.0,-0.027184823096434385
24952.0,0.2602136357471812
24960.0,0.8204205411448081
24968.0,1.121723262920732
24976.0,0.7736631550229125
24984.0,0.22588046039984583
24992.0,-0.035437963239517534
25000.0,-0.07298337308475072
25008.0,-0.047914778987456746
25016.0,-0.029719871079066068
25024.0,-0.025532047569683466
25032.0,-0.027092667813479736
25040.0,-0.029102673219340163
25048.0,-0.03033693810549157
25056.0,-0.031088146021750147
25064.0,-0.031710647499083394
25072.0,-0.03232895565513741
25080.0,-0.03293515695617724
25088.0,-0.033487228929817904
25096.0,-0.033975361613668126
25104.0,-0.034532862450909946
25112.0,-0.03555602139724191
25120.0,-0.03740952382209604
25128.0,-0.03889533882786244
25136.0,-0.03820604818836087
25144.0,-0.03928029293857588
25152.0,-0.0447510220622942
25160.0,-0.05147320797262938
25168.0,-0.05453271279878335
25176.0,-0.05405042862791691
25184.0,-0.053943153572221576
25192.0,-0.05515908944886562
25200.0,-0.05631520034896616
25208.0,-0.05624718681547228
25216.0,-0.057551169044607435
25224.0,-0.05767881821851258
25232.0,-0.05339484574838671
25240.0,-0.04658511647073856
25248.0,-0.04159355643554898
25256.0,-0.04006587590623122
25264.0,-0.04025129968680942
25272.0,-0.04069118946400657
25280.0,-0.04095910684289583
25288.0,-0.041091647556784704
25296.0,-0.04117955721474441
25304.0,-0.04126197486324945
25312.0,-0.041343259581605334
25320.0,-0.041419266175692235
25328.0,-0.04148752628166284
25336.0,-0.04154783151300576
25344.0,-0.041600798982777756
25352.0,-0.04164706015676753
25360.0,-0.04168710249351957
25368.0,-0.04172132848523326
25376.0,-0.04175011168320299
25384.0,-0.04177381449881028
25392.0,-0.04179278750090985
25400.0,-0.04180736603761178
25408.0,-0.04181786869247111
25416.0,-0.04182459706655409
25424.0,-0.04182783595353202
25432.0,-0.04182785343969607
25440.0,-0.04182490094029178
25448.0,-0.04181921319083947
25456.0,-0.04181100823903821
25464.0,-0.04180048745109732
25472.0,-0.04178783550352412
25480.0,-0.04177322040141077
25488.0,-0.0417567934692367
25496.0,-0.041738689371650955
25504.0,-0.04171902611405034
25512.0,-0.04169790505663934
25520.0,-0.04167541090351411
25528.0,-0.041651611641641606
25536.0,-0.04162655848301659
25544.0,-0.04160028601474853
25552.0,-0.041572813125093255
25560.0,-0.04154414473106148
25568.0,-0.04151427153415576
25576.0,-0.041483159059693415
25584.0,-0.041450717152473004
25592.0,-0.04141677552891903
25600.0,-0.04138119226290314
25608.0,-0.04134431447460249
25616.0,-0.041307687448796045
25624.0,-0.041273405315560154
25632.0,-0.041238038421152916
25640.0,-0.04117871228022016
25648.0,-0.041048213087400136
25656.0,-0.04084288069759944
25664.0,-0.040829469808489754
25672.0,-0.0418089526204304
25680.0,-0.04454698076289467
25688.0,-0.04735285948252784
25696.0,-0.047995441194817565
25704.0,-0.04582825647314641
25712.0,-0.0441083454615306
25720.0,-0.04366267068189193
25728.0,-0.041961650669145194
25736.0,-0.04070088744219724
25744.0,-0.04021980439067867
25752.0,-0.0396269734280417
25760.0,-0.038333751942200685
25768.0,-0.03771606834335155
25776.0,-0.043492579859498386
25784.0,-0.06374336638283278
25792.0,-0.08842759859159989
25800.0,-0.040597760930706266
25808.0,0.24527041509366382
25816.0,0.8022636144308316
25824.0,1.1143515813989948
25832.0,0.7785403448447751
25840.0,0.22497490974655396
25848.0,-0.045925055831497724
25856.0,-0.08658206839491138
25864.0,-0.060650652324874293
25872.0,-0.040740822306909924
25880.0,-0.035110458307308814
25888.0,-0.035529580364051516
25896.0,-0.03652158498467941
25904.0,-0.03676848923985678
25912.0,-0.03654569371146174
25920.0,-0.03621378365550797
25928.0,-0.0359050043493038
25936.0,-0.03562407482523653
25944.0,-0.03535133682876494
25952.0,-0.03507719069723175
25960.0,-0.03480174973357307
25968.0,-0.03452693844168886
25976.0,-0.03424663583594154
25984.0,-0.03393667685296242
25992.0,-0.033568123591087504
26000.0,-0.03320209104425902
26008.0,-0.03318924765452102
26016.0,-0.034196118877184115
26024.0,-0.036132083165799266
26032.0,-0.03781123601306434
26040.0,-0.040950960377300415
26048.0,-0.04542345851727903
26056.0,-0.049864022140836864
26064.0,-0.051656454339649695
26072.0,-0.04992729208809896
26080.0,-0.04360844103733556
26088.0,-0.03511176247184239
26096.0,-0.03036283742039141
26104.0,-0.029252358421220155
26112.0,-0.029348112231404475
26120.0,-0.02942788275351591
26128.0,-0.029298650827916533
26136.0,-0.02907207116438121
26144.0,-0.028836305754069244
26152.0,-0.028616217998372384
26160.0,-0.028409246808484535
26168.0,-0.02820998235895602
26176.0,-0.028016240265953698
26184.0,-0.027827911131299295
26192.0,-0.02764535966027481
26200.0,-0.027468825977461732
26208.0,-0.027298400762742973
26216.0,-0.027134114306870613
26224.0,-0.02697598501765262
26232.0,-0.026824028354190604
26240.0,-0.026678253087997844
26248.0,-0.026538657973227606
26256.0,-0.026405230768943983
26264.0,-0.026277948356745906
26272.0,-0.026156776968335228
26280.0,-0.026041672291000732
26288.0,-0.025932579529471624
26296.0,-0.025829433756080003
26304.0,-0.025732160764516072
26312.0,-0.02564067771138381
26320.0,-0.0255548900559829
26328.0,-0.02547467898305566
26336.0,-0.025399882924367328
26344.0,-0.025330317721813597
26352.0,-0.025265944735509933
26360.0,-0.02520724382354486
26368.0,-0.02515531054932094
26376.0,-0.02510994497317381
26384.0,-0.0250634840555739
26392.0,-0.024994062820346243
26400.0,-0.024882282077489395
26408.0,-0.024799556757761073
26416.0,-0.02506849719531345
26424.0,-0.02620950018773966
26432.0,-0.027844234314148467
26440.0,-0.027692081627937407
26448.0,-0.027573282911123615
26456.0,-0.028934201824713807
26464.0,-0.029305949469269815
26472.0,-0.028508043949011817
26480.0,-0.02780122328967296
26488.0,-0.028850549377200666
26496.0,-0.03032599622634118
26504.0,-0.03275021653944999
26512.0,-0.03466503250941231
26520.0,-0.0340357840749871
26528.0,-0.03045714976624259
26536.0,-0.026314286031122392
26544.0,-0.026135843209363584
26552.0,-0.029762980674621083
26560.0,-0.03208626807806836
26568.0,-0.029238102332824686
26576.0,-0.025597541841650376
26584.0,-0.030394092792308643
26592.0,-0.05064744794951678
26600.0,-0.06921263783130976
26608.0,-0.0003480600110405611
26616.0,0.3093995092809497
26624.0,0.8066823891899877
26632.0,0.9103442175859666
26640.0,0.46246523588149796
26648.0,0.06631090030996287
26656.0,-0.06191204169559619
26664.0,-0.058236153746389546
26672.0,-0.034610272994023666
26680.0,-0.02347174172532106
26688.0,-0.021898038724793862
26696.0,-0.022946043877312267
26704.0,-0.02366954696788948
26712.0,-0.02378575054660763
26720.0,-0.02365464249207193
26728.0,-0.023502742464110632
26736.0,-0.02338154302676526
26744.0,-0.023278276300472613
26752.0,-0.023178004114668756
26760.0,-0.023075933728859604
26768.0,-0.022973784037863335
26776.0,-0.022876088163213196
26784.0,-0.022784858279603377
26792.0,-0.022684471167848823
26800.0,-0.022520983336613544
26808.0,-0.022230615883029606
26816.0,-0.0219462469369722
26824.0,-0.022432819000334527
26832.0,-0.025143933573763818
26840.0,-0.03025402472709511
26848.0,-0.03615317150177438
26856.0,-0.038132017153068035
26864.0,-0.03404159437153688
26872.0,-0.030235393099843393
26880.0,-0.03103758567949254
26888.0,-0.03382305084818569
26896.0,-0.03240169507430329
26904.0,-0.026880029709229612
26912.0,-0.022423507671269736
26920.0,-0.02095326730394391
26928.0,-0.02094806383664268
26936.0,-0.021165328764707544
26944.0,-0.021247702361694536
26952.0,-0.021228687509035588
26960.0,-0.021185605266658865
26968.0,-0.021151138166392736
26976.0,-0.02112841168657508
26984.0,-0.02111347421098052
26992.0,-0.021103868567154408
27000.0,-0.02109907459854083
27008.0,-0.021099272331704413
27016.0,-0.021104654914161722
27024.0,-0.021115297557856908
27032.0,-0.021131209081689164
27040.0,-0.02115237975243287
27048.0,-0.02117879620309592
27056.0,-0.021210440724133077
27064.0,-0.021247288374897966
27072.0,-0.02128930565619194
27080.0,-0.02133645034264757
27088.0,-0.02138867160097711
27096.0,-0.021445910075825605
27104.0,-0.0215080978881685
27112.0,-0.02157515861063319
27120.0,-0.02164700723633673
27128.0,-0.02172355014700214
27136.0,-0.021804685089337007
27144.0,-0.021890301137983268
27152.0,-0.021980278670965858
27160.0,-0.02207448932832096
27168.0,-0.022172795982051883
27176.0,-0.022275052694899877
27184.0,-0.022381104682055602
27192.0,-0.02249078827229567
27200.0,-0.022603930861124614
27208.0,-0.02272035087363804
27216.0,-0.022839857711606706
27224.0,-0.022962251714857093
27232.0,-0.023087324106957435
27240.0,-0.023214856951107164
27248.0,-0.02334462309833844
27256.0,-0.023476386135221447
27264.0,-0.023609900334696964
27272.0,-0.023744910595775104
27280.0,-0.02388115240157869
27288.0,-0.02401835177590511
27296.0,-0.024156225270611533
27304.0,-0.02429447989513778
27312.0,-0.024432812832918198
27320.0,-0.024570910769883568
27328.0,-0.02470844939883391
27336.0,-0.02484509572683166
27344.0,-0.024980517491838765
27352.0,-0.025114396875449096
27360.0,-0.025246414859734116
27368.0,-0.025376124360509435
27376.0,-0.025502671520331536
27384.0,-0.025624729338938328
27392.0,-0.02574194489259079
27400.0,-0.02585956907454959
27408.0,-0.02599342913148706
27416.0,-0.02615719735568432
27424.0,-0.02629585825905679
27432.0,-0.02616616772983191
27440.0,-0.025380188322651816
27448.0,-0.024235948026981893
27456.0,-0.025892134026434258
27464.0,-0.03781849003640112
27472.0,-0.0632134735714849
27480.0,-0.06740885562247435
27488.0,0.06987341713774745
27496.0,0.4937049827417084
27504.0,0.9832510429280998
27512.0,0.939298715519376
27520.0,0.4224243031153871
27528.0,0.03812778681778812
27536.0,-0.07080005393374965
27544.0,-0.05959414505809743
27552.0,-0.03554965690247581
27560.0,-0.025499836783740952
27568.0,-0.024562860507115283
27576.0,-0.025763527129705463
27584.0,-0.026474325416838165
27592.0,-0.02657604482053356
27600.0,-0.026455495833478178
27608.0,-0.026324969297928304
27616.0,-0.026224278139572357
27624.0,-0.026137404083768648
27632.0,-0.026050096435673024
27640.0,-0.025959273336823317
27648.0,-0.025868089144825634
27656.0,-0.025778978837870014
27664.0,-0.02568145992037838
27672.0,-0.025536360665024672
27680.0,-0.02529487958953546
27688.0,-0.025047426832518153
27696.0,-0.025347105822301
27704.0,-0.02727960419372086
27712.0,-0.03080369156327733
27720.0,-0.03307116098931511
27728.0,-0.03436280158772521
27736.0,-0.03459160115663933
27744.0,-0.03265947805536072
27752.0,-0.03148938671219626
27760.0,-0.03144904293781723
27768.0,-0.028552253892656438
27776.0,-0.025274179789068218
27784.0,-0.024005370370825153
27792.0,-0.023880524801893628
27800.0,-0.02398445499242524
27808.0,-0.024010348376319365
27816.0,-0.023961589174086265
27824.0,-0.023891963964281247
27832.0,-0.023827684502176833
27840.0,-0.023772737786013253
27848.0,-0.023724759693130686
27856.0,-0.02368200463244818
27864.0,-0.02364410276917732
27872.0,-0.02361125538498562
27880.0,-0.023583706980184745
27888.0,-0.023561620299711802
27896.0,-0.023545103928939447
27904.0,-0.023534247112298
27912.0,-0.023529132374014102
27920.0,-0.02352983585632497
27928.0,-0.023536425348258862
27936.0,-0.02354895925754397
27944.0,-0.02356748642231124
27952.0,-0.02359204620143951
27960.0,-0.02362266853258658
27968.0,-0.023659373950300377
27976.0,-0.02370217356814941
27984.0,-0.023751069060561247
27992.0,-0.02380605264583369
28000.0,-0.02386710706159751
28008.0,-0.023934205550113212
28016.0,-0.0240073118258351
28024.0,-0.02408638005691797
28032.0,-0.024171354829003174
28040.0,-0.02426217111853411
28048.0,-0.02435875425681296
28056.0,-0.024461019892707457
28064.0,-0.02456887395818112
28072.0,-0.02468221262094247
28080.0,-0.02480092224957953
28088.0,-0.024924879359729778
28096.0,-0.025053950574543727
28104.0,-0.025187992569362033
28112.0,-0.025326852023363423
28120.0,-0.025470365566128653
28128.0,-0.025618359719018668
28136.0,-0.02577065084398037
28144.0,-0.025927045076410856
28152.0,-0.026087338273403732
28160.0,-0.026251315942779598
28168.0,-0.026418753186086722
28176.0,-0.026589414628905815
28184.0,-0.026763054355225493
28192.0,-0.02693941584175153
28200.0,-0.02711823188299403
28208.0,-0.02729922452781708
28216.0,-0.02748210499694183
28224.0,-0.027666573620822442
28232.0,-0.027852319771526187
28240.0,-0.028039021828229406
28248.0,-0.028226347122962844
28256.0,-0.02841395173185329
28264.0,-0.028601479886554478
28272.0,-0.02878856315809047
28280.0,-0.028974821309671554
28288.0,-0.02915986922095662
28296.0,-0.02934333187517525
28304.0,-0.02952484700384314
28312.0,-0.02970398405725536
28320.0,-0.02987999184723043
28328.0,-0.03005153775406636
28336.0,-0.030217433862828
28344.0,-0.030380300647850106
28352.0,-0.030552974289527135
28360.0,-0.0307556715437712
28368.0,-0.030969850890844225
28376.0,-0.031020159856610014
28384.0,-0.030501501963045168
28392.0,-0.029261385460077217
28400.0,-0.029242962462481335
28408.0,-0.03701742113913715
28416.0,-0.060334390235457815
28424.0,-0.08309773088421937
28432.0,-0.012522221631867423
28440.0,0.3274629816729076
28448.0,0.9116967193728652
28456.0,1.160027498344643
28464.0,0.7642107124120453
28472.0,0.20787297469458985
28480.0,-0.04774428884071613
28488.0,-0.0805001892607155
28496.0,-0.053380302487427686
28504.0,-0.03436870875078725
28512.0,-0.02952799510637561
28520.0,-0.030328364735502874
28528.0,-0.0315172229624084
28536.0,-0.031937002434207454
28544.0,-0.03190561995032641
28552.0,-0.031777177510543646
28560.0,-0.031673580037860895
28568.0,-0.031595527149117314
28576.0,-0.0315229606993675
28584.0,-0.03144636986711253
28592.0,-0.03136570825522099
28600.0,-0.03128440905310337
28608.0,-0.03120340768160168
28616.0,-0.031110717564331147
28624.0,-0.030971394041498332
28632.0,-0.030756981175037168
28640.0,-0.030592164764757318
28648.0,-0.03101061145784803
28656.0,-0.03283808536193207
28664.0,-0.03557815578899594
28672.0,-0.03833662062196375
28680.0,-0.04016377664656249
28688.0,-0.03990283022166253
28696.0,-0.040067110010910144
28704.0,-0.03999287691423773
28712.0,-0.03936089730198445
28720.0,-0.03774702511738881
28728.0,-0.03453273697536196
28736.0,-0.031042591469292904
28744.0,-0.02955653143330748
28752.0,-0.0293682449568924
28760.0,-0.029485993756842337
28768.0,-0.029538067784780735
28776.0,-0.029508622575236825
28784.0,-0.02945290788504678
28792.0,-0.029401112500745057
28800.0,-0.029358917662641343
28808.0,-0.0293241087091803
28816.0,-0.029294703003778805
28824.0,-0.029270164158214335
28832.0,-0.029250625878100702
28840.0,-0.029236300476739564
28848.0,-0.029227317870792906
28856.0,-0.029223745912766688
28864.0,-0.029225627815477193
28872.0,-0.029232997240917602
28880.0,-0.029245879441912974
28888.0,-0.029264289254133675
28896.0,-0.029288229917101945
28904.0,-0.029317692812820546
28912.0,-0.02935265753786638
28920.0,-0.02939309197215467
28928.0,-0.029438952287994598
28936.0,-0.029490182940507564
28944.0,-0.029546716635282074
28952.0,-0.029608474315974322
28960.0,-0.02967536513162355
28968.0,-0.02974728642015657
28976.0,-0.02982412367696518
28984.0,-0.029905750527524373
28992.0,-0.029992028699302162
29000.0,-0.030082807983107737
29008.0,-0.030177926207493967
29016.0,-0.03027720919217965
29024.0,-0.030380470720501086
29032.0,-0.030487512490960246
29040.0,-0.030598124082251613
29048.0,-0.0307120829080715
29056.0,-0.03082915417146214
29064.0,-0.03094909082345612
29072.0,-0.031071633506311567
29080.0,-0.031196510516700027
29088.0,-0.031323437758837135
29096.0,-0.03145211873769283
29104.0,-0.031582244522244216
29112.0,-0.031713493564325845
29120.0,-0.03184553113123521
29128.0,-0.03197800852964662
29136.0,-0.032110563999233975
29144.0,-0.03224282964230047
29152.0,-0.032374446250857586
29160.0,-0.03250506555279033
29168.0,-0.0326342690789624
29176.0,-0.03276131771078165
29184.0,-0.03288489784516708
29192.0,-0.033003855358635974
29200.0,-0.03312084302126189
29208.0,-0.033248632634048765
29216.0,-0.03340709480290357
29224.0,-0.03357711175442114
29232.0,-0.033583635267905886
29240.0,-0.033026021851508255
29248.0,-0.031762961463726425
29256.0,-0.031743610206290275
29264.0,-0.03949230805131277
29272.0,-0.0625821080929986
29280.0,-0.0846895597525486
29288.0,-0.013376533340847435
29296.0,0.32509624777375434
29304.0,0.9035959734278869
29312.0,1.143573315953157
29320.0,0.744598255866938
29328.0,0.19588472385174438
29336.0,-0.05195022831250727
29344.0,-0.08195202315897027
29352.0,-0.05477396718790315
29360.0,-0.0361812332801576
29368.0,-0.03154196821866165
29376.0,-0.03235509883385948
29384.0,-0.03350041851714187
29392.0,-0.0338815023272734
29400.0,-0.03382374125263609
29408.0,-0.03367462822115172
29416.0,-0.033551420789622664
29424.0,-0.0334538356695357
29432.0,-0.033362982313326496
29440.0,-0.03327140074070557
29448.0,-0.033178478664215826
29456.0,-0.033075155324003805
29464.0,-0.0329296842737363
29472.0,-0.032708165478501555
29480.0,-0.03250397475582845
29488.0,-0.03279312387938151
29496.0,-0.034417276439576074
29504.0,-0.037182063878113424
29512.0,-0.04038361862405812
29520.0,-0.04358084876312435
29528.0,-0.045656769512070296
29536.0,-0.04933477802447089
29544.0,-0.04999937022376287
29552.0,-0.045094759339936306
29560.0,-0.03827491272883151
29568.0,-0.0350889544092603
29576.0,-0.03298389215143912
29584.0,-0.031574987247639213
29592.0,-0.031150791761214224
29600.0,-0.031121976180603472
29608.0,-0.03112430330704901
29616.0,-0.031077324434005873
29624.0,-0.03100296700312718
29632.0,-0.030925835444745243
29640.0,-0.03085447242320264
29648.0,-0.030788998425907366
29656.0,-0.0307280772146278
29664.0,-0.03067106938270355
29672.0,-0.030617920185743053
29680.0,-0.030568737996304277
29688.0,-0.03052360473270265
29696.0,-0.030482553320886955
29704.0,-0.030445588668343668
29712.0,-0.030412701920857155
29720.0,-0.030383873966397686
29728.0,-0.03035907476364217
29736.0,-0.030338262430488355
29744.0,-0.0303213828989022
29752.0,-0.030308369920341287
29760.0,-0.030299145114397196
29768.0,-0.03029361801119182
29776.0,-0.03029168605734017
29784.0,-0.030293234617588122
29792.0,-0.030298136964070948
29800.0,-0.030306254231322136
29808.0,-0.030317435385090245
29816.0,-0.030331517318797165
29824.0,-0.030348325406308517
29832.0,-0.030367674437896373
29840.0,-0.03038936816896087
29848.0,-0.030413192399807634
29856.0,-0.03043889739849944
29864.0,-0.030466187357296733
29872.0,-0.03049479314992296
29880.0,-0.03052474682884089
29888.0,-0.03055675608881542
29896.0,-0.030591676970604914
29904.0,-0.030626769135072677
29912.0,-0.030647855988261176
29920.0,-0.03062849158953906
29928.0,-0.030573811580854815
29936.0,-0.03065334167380862
29944.0,-0.03133129979750462
29952.0,-0.0329633912399898
29960.0,-0.03397436791144484
29968.0,-0.032243187552721764
29976.0,-0.03079822861690485
29984.0,-0.03221373038143836
29992.0,-0.03762764111018175
30000.0,-0.044745322499315635
30008.0,-0.049573039177812736
30016.0,-0.051003898846812834
30024.0,-0.05098971995549089
30032.0,-0.05099359939692376
30040.0,-0.05115577560589142
30048.0,-0.05016400660662712
30056.0,-0.04552778672721676
30064.0,-0.03735996713095953
30072.0,-0.03162742709844755
30080.0,-0.030039129266890965
30088.0,-0.0301902263079118
30096.0,-0.03025348130333386
30104.0,-0.029441294317659676
30112.0,-0.028068158328832554
30120.0,-0.029284753049725932
30128.0,-0.04063259835938404
30136.0,-0.06607818255332798
30144.0,-0.0729213496644018
30152.0,0.05768308892239362
30160.0,0.4800527156555443
30168.0,0.9868916242305571
30176.0,0.9420440086928509
30184.0,0.4082528870699864
30192.0,0.025090087344739054
30200.0,-0.07873731179397572
30208.0,-0.06919571735837447
30216.0,-0.046898896214982284
30224.0,-0.03424290875701032
30232.0,-0.030642415399715014
30240.0,-0.03251625262203593
30248.0,-0.037835552752897836
30256.0,-0.04183703176633738
30264.0,-0.04234809209940616
30272.0,-0.04262059598094138
30280.0,-0.04094695478797969
30288.0,-0.03517235308068579
30296.0,-0.031020646996792165
30304.0,-0.033414852460297295
30312.0,-0.03550242356061074
30320.0,-0.034260936859226036
30328.0,-0.03210311138503255
30336.0,-0.03415580057020634
30344.0,-0.037848578557780954
30352.0,-0.03889842608559892
30360.0,-0.03715946640973904
30368.0,-0.03488508774161316
30376.0,-0.035214843824929405
30384.0,-0.036188549117811684
30392.0,-0.03626305958733927
30400.0,-0.03582239121011679
30408.0,-0.03516420796284123
30416.0,-0.03374222744063641
30424.0,-0.030446108523629115
30432.0,-0.026076754239651934
30440.0,-0.02302280913107611
30448.0,-0.017445039079910272
30456.0,-0.012083638766823957
30464.0,-0.009625631802960282
30472.0,-0.008745994374378148
30480.0,-0.00842592983114153
30488.0,-0.00880093468647314
30496.0,-0.009796785583271342
30504.0,-0.00894147929435223
30512.0,-0.006270926957528486
30520.0,-0.004339742737679622
30528.0,-0.0032342049978621667
30536.0,-0.002401903240213733
30544.0,-0.001554555495606826
30552.0,-0.0006427953272945656
30560.0,0.00030901048807477035
30568.0,0.0012805217705323879
30576.0,0.002265883675649243
30584.0,0.003265737506802135
30592.0,0.004281488625113497
30600.0,0.005313817597580848
30608.0,0.00636291542651159
30616.0,0.007428851682538908
30624.0,0.008511717067309079
30632.0,0.009611631273947973
30640.0,0.010728722413599895
30648.0,0.01186311520408719
30656.0,0.01301492829374147
30664.0,0.014184274637524709
30672.0,0.0153712618208761
30680.0,0.016575991847775355
30688.0,0.017798560652458228
30696.0,0.01903905757646114
30704.0,0.020297564855235865
30712.0,0.021574157122441533
30720.0,0.0228689009104125
30728.0,0.024181854139452355
30736.0,0.025513065607156164
30744.0,0.02686257445692346
30752.0,0.02823040965552691
30760.0,0.029616589446043527
30768.0,0.031021120808656856
30776.0,0.032443998901211454
30784.0,0.03388520649774219
30792.0,0.03534471342890162
30800.0,0.03682247602675024
30808.0,0.03831843660111133
30816.0,0.03983252282050839
30824.0,0.041364646793543514
30832.0,0.04291470357490998
30840.0,0.04448256996990922
30848.0,0.046068107355478886
30856.0,0.04767117462837271
30864.0,0.04929164690064402
30872.0,0.050929391333319605
30880.0,0.0525840839394446
30888.0,0.05425481322379707
30896.0,0.055940001916630365
30904.0,0.057639508427887697
30912.0,0.059361234659918334
30920.0,0.06112803442832833
30928.0,0.06295892443631038
30936.0,0.06477357054956899
30944.0,0.06622340902464063
30952.0,0.0667625091793754
30960.0,0.06684634483107872
30968.0,0.06921592926738362
30976.0,0.07282501056326172
30984.0,0.07553351599208136
30992.0,0.07751270469861445
31000.0,0.07926973083285324
31008.0,0.08102415553843194
31016.0,0.08287644375690041
31024.0,0.08508053672686976
31032.0,0.08799107153058908
31040.0,0.09103336425300412
31048.0,0.0903447680005526
31056.0,0.07799673014132691
31064.0,0.05358281406322502
31072.0,0.06271850449712307
31080.0,0.24100889072993434
31088.0,0.715289035966964
31096.0,1.1679580551270476
31104.0,1.0265055983886018
31112.0,0.4902166068523676
31120.0,0.14521320678320804
31128.0,0.06326207688000356
31136.0,0.0824395856383173
31144.0,0.10713288590932031
31152.0,0.1173909685811981
31160.0,0.1195513334339355
31168.0,0.12013178672526302
31176.0,0.1212882362967179
31184.0,0.12298758991675836
31192.0,0.12485259662191883
31200.0,0.12668875130885993
31208.0,0.12838856651027675
31216.0,0.12978294261022383
31224.0,0.13080627960695884
31232.0,0.13232469798143193
31240.0,0.1373123839300166
31248.0,0.14936741316330202
31256.0,0.16144307234583855
31264.0,0.13174036758947147
31272.0,-0.02039961804792949
31280.0,-0.2930575676248756
31288.0,-0.4889792269516834
31296.0,-0.5445369633273415
31304.0,-0.538110816260499
31312.0,-0.5248368165022719
31320.0,-0.5186802110004952
31328.0,-0.5171234414335868
31336.0,-0.5165840756670742
31344.0,-0.5163420426187199
31352.0,-0.5182856633145896
31360.0,-0.5245691151568889
31368.0,-0.531733003114003
31376.0,-0.5347909476335984
31384.0,-0.5349247808600813
31392.0,-0.5343041622937251
31400.0,-0.5337626301115969
31408.0,-0.5334712548250488
31416.0,-0.5340247626104991
31424.0,-0.5368510908044142
31432.0,-0.5421179916326727
31440.0,-0.5439000896960924
31448.0,-0.5396624552719694
31456.0,-0.5361564268931517
31464.0,-0.5350339152435618
31472.0,-0.5356929960321014
31480.0,-0.5401380060194867
31488.0,-0.5519063849078991
31496.0,-0.5641835397148225
31504.0,-0.5345322368329776
31512.0,-0.37922399804406337
31520.0,-0.09680476170563652
31528.0,0.10654474720697373
31536.0,0.16395106191571063
31544.0,0.15699213858428474
31552.0,0.14285063473238913
31560.0,0.13602158862245478
31568.0,0.1340011126644599
31576.0,0.13308893259375293
31584.0,0.13187819004635798
31592.0,0.1303007303970677
31600.0,0.12856301823667493
31608.0,0.12678060916599052
31616.0,0.12497733853400855
31624.0,0.1231470115710713
31632.0,0.1212840491006756
31640.0,0.11938824194684987
31648.0,0.11746190564076868
31656.0,0.11550766364755477
31664.0,0.1135278328440748
31672.0,0.11152449480575795
31680.0,0.1094996361841416
31688.0,0.1074552065673551
31696.0,0.10539312398503807
31704.0,0.10331526832781152
31712.0,0.10122347773362075
31720.0,0.09911954846444591
31728.0,0.09700523601110567
31736.0,0.0948822562588218
31744.0,0.09275228639877035
31752.0,0.0906169657906893
31760.0,0.08847789672929132
31768.0,0.08633664531286683
31776.0,0.08419474248353623
31784.0,0.0820536854796276
31792.0,0.07991493922923752
31800.0,0.07777993524493268
31808.0,0.07565006369775565
31816.0,0.07352665992656096
31824.0,0.0714110154892584
31832.0,0.06930449300284304
31840.0,0.06720880028930139
31848.0,0.06512611788577659
31856.0,0.0630578566204992
31864.0,0.061000285973670645
31872.0,0.05893906483253347
31880.0,0.056859074185673465
31888.0,0.05480541175029678
31896.0,0.05300350248375358
31904.0,0.05185102823105249
31912.0,0.05118467392111528
31920.0,0.048187999941011424
31928.0,0.035594728136706846
31936.0,0.008776508840025598
31944.0,-0.0029086601828498732
31952.0,0.11355071773987599
31960.0,0.5136423298361823
31968.0,1.011139350177446
31976.0,0.9820477150238518
31984.0,0.46872381713565436
31992.0,0.09064971484626005
32000.0,-0.015122249414933717
32008.0,-0.0045267204685612026
32016.0,0.017590627038477007
32024.0,0.0256935922620932
32032.0,0.024919647045672278
32040.0,0.022139850260501817
32048.0,0.019889398116531343
32056.0,0.01825934543078144
32064.0,0.01686448920400515
32072.0,0.015497787700331505
32080.0,0.01412078352161141
32088.0,0.012749904936311304
32096.0,0.011406485728659276
32104.0,0.010114860375051457
32112.0,0.008891490544845407
32120.0,0.007665411690811831
32128.0,0.006131032057438402
32136.0,0.0038083210197424108
32144.0,0.001092375217656691
32152.0,0.000405770125749506
32160.0,-0.000149994594221107
32168.0,-0.004305072879353748
32176.0,-0.010759260581548358
32184.0,-0.016346963893286496
32192.0,-0.02101224622860178
32200.0,-0.02357124491484623
32208.0,-0.023429778879118825
32216.0,-0.021307574837225195
32224.0,-0.017585048571116237
32232.0,-0.01198571771234744
32240.0,-0.009150182905732444
32248.0,-0.009296209941542118
32256.0,-0.010468509731565562
32264.0,-0.011632006287357248
32272.0,-0.012605699195994215
32280.0,-0.013475497706523941
32288.0,-0.014314894767011234
32296.0,-0.015145944447247638
32304.0,-0.015967293859574325
32312.0,-0.016774720037468115
32320.0,-0.017566537762988926
32328.0,-0.018342803075681688
32336.0,-0.019103999581468096
32344.0,-0.019850522560975692
32352.0,-0.020582645886399253
32360.0,-0.021300592793717873
32368.0,-0.022004576465024933
32376.0,-0.022694807904161764
32384.0,-0.023371492782340915
32392.0,-0.024034828355225555
32400.0,-0.02468500228210646
32408.0,-0.025322192396304684
32416.0,-0.025946566604515154
32424.0,-0.026558282719414707
32432.0,-0.027157488213458602
32440.0,-0.02774431997187837
32448.0,-0.02831890404565859
32456.0,-0.02888135541456147
32464.0,-0.02943177776287922
32472.0,-0.02997026324762365
32480.0,-0.03049689228878632
32488.0,-0.031011733344142665
32496.0,-0.03151484270869844
32504.0,-0.03200626430204803
32512.0,-0.03248602947092982
32520.0,-0.032954156791726086
32528.0,-0.0334106518735036
32536.0,-0.033855507184274734
32544.0,-0.03428870188140359
32552.0,-0.03471020168264201
32560.0,-0.035119958653468474
32568.0,-0.035517910747570026
32576.0,-0.03590398092795803
32584.0,-0.03627807670789446
32592.0,-0.03664009329857954
32600.0,-0.036989924893275114
32608.0,-0.03732747845923488
32616.0,-0.03765264691911288
32624.0,-0.03796514894706555
32632.0,-0.03826421785896916
32640.0,-0.038548637974062536
32648.0,-0.038818681236852094
32656.0,-0.03908156163688908
32664.0,-0.03935593707545118
32672.0,-0.039652913664156735
32680.0,-0.039894068399810814
32688.0,-0.03978347867443003
32696.0,-0.03891806829855836
32704.0,-0.0378632025725722
32712.0,-0.04064742333477101
32720.0,-0.055710470881221066
32728.0,-0.08394916839213908
32736.0,-0.0782645281630266
32744.0,0.10439712773514223
32752.0,0.6025683275639879
32760.0,1.098930229544822
32768.0,1.012401852766651
32776.0,0.45701376772280444
32784.0,0.035937432617516495
32792.0,-0.0874354708668842
32800.0,-0.07714286697008904
32808.0,-0.05109770340030379
32816.0,-0.039891719405367794
32824.0,-0.0387080803030965
32832.0,-0.03996617855108723
32840.0,-0.04072712056547527
32848.0,-0.040820588748427006
32856.0,-0.04066086711696813
32864.0,-0.04048320766943488
32872.0,-0.0403353084155963
32880.0,-0.04020146463895607
32888.0,-0.040060831488843186
32896.0,-0.03988994496500746
32904.0,-0.039665558157846316
32912.0,-0.0394307561999846
32920.0,-0.03944969652855915
32928.0,-0.040247293498632694
32936.0,-0.04180429093233203
32944.0,-0.041673000692836665
32952.0,-0.03957797966327983
32960.0,-0.03896940377650327
32968.0,-0.041371904801210016
32976.0,-0.04553792659033679
32984.0,-0.04699989861784249
32992.0,-0.04638718603665502
33000.0,-0.047846037015226876
33008.0,-0.04988924885344936
33016.0,-0.04929583117289469
33024.0,-0.043132165494964125
33032.0,-0.03792776963437922
33040.0,-0.03617916843137278
33048.0,-0.0360762646569497
33056.0,-0.03620492388478019
33064.0,-0.036171250754954073
33072.0,-0.03602012466916429
33080.0,-0.03584072700491253
33088.0,-0.03566980335713139
33096.0,-0.03551060544761058
33104.0,-0.03535865060949548
33112.0,-0.03521130065587491
33120.0,-0.03506813172391654
33128.0,-0.034929495424432855
33136.0,-0.03479574282363323
33144.0,-0.03466708374344332
33152.0,-0.03454364882020617
33160.0,-0.03442554403585701
33168.0,-0.034312867319252455
33176.0,-0.03420570753207233
33184.0,-0.03410414118730295
33192.0,-0.03400823102608053
33200.0,-0.03391802588670808
33208.0,-0.03383356092085229
33216.0,-0.03375485772879091
33224.0,-0.033681924431379684
33232.0,-0.033614755685852114
