time,ECG
0.0,-0.018716493881336758
8.0,-0.03145763128801719
16.0,-0.03945404033834919
24.0,-0.041171302928625315
32.0,-0.037097976581891186
40.0,-0.03295132044466188
48.0,-0.03334382492127852
56.0,-0.037183993939731666
64.0,-0.04027825418254406
72.0,-0.03974839307103054
80.0,-0.03867326861012344
88.0,-0.036774924473508
96.0,-0.03596223956594014
104.0,-0.037364708667125796
112.0,-0.035842933774340044
120.0,-0.031379396355909264
128.0,-0.02853243111041392
136.0,-0.02887715786070004
144.0,-0.032915693724099776
152.0,-0.03904086834751781
160.0,-0.03989222467221047
168.0,-0.034799278877961144
176.0,-0.03173936946069241
184.0,-0.033864942323412445
192.0,-0.03909690414205601
200.0,-0.04496975866226023
208.0,-0.045722468075403144
216.0,-0.04029822409248149
224.0,-0.03593935618821268
232.0,-0.03673399293968396
240.0,-0.04086169286864228
248.0,-0.04372545692137884
256.0,-0.04369445564932621
264.0,-0.04228735169921355
272.0,-0.0409421080133354
280.0,-0.040121536084381515
288.0,-0.03847175066574513
296.0,-0.03795702497018369
304.0,-0.03553506075848372
312.0,-0.03208416456992179
320.0,-0.03068704560410672
328.0,-0.030824253246783204
336.0,-0.031464873364630754
344.0,-0.03401462129658178
352.0,-0.04890475144966464
360.0,-0.0772714990798735
368.0,-0.06946305916025304
376.0,0.11518239337050876
384.0,0.6139076839704534
392.0,1.1148978344375502
400.0,1.0399575035750286
408.0,0.4800476746348028
416.0,0.04764154934340914
424.0,-0.08368742460076432
432.0,-0.0801663624273595
440.0,-0.05734970200482045
448.0,-0.039675270342915236
456.0,-0.03463873078849608
464.0,-0.036296544954532155
472.0,-0.03555043116216905
480.0,-0.03303586284461055
488.0,-0.03131252798463961
496.0,-0.03215783348604331
504.0,-0.03325737320648118
512.0,-0.0346866013879101
520.0,-0.03666497539990419
528.0,-0.03610748797650362
536.0,-0.0322279448890384
544.0,-0.030505947538993633
552.0,-0.031965329110778554
560.0,-0.03400141410118403
568.0,-0.03674380138508944
576.0,-0.03874341734330924
584.0,-0.04221740218301334
592.0,-0.04797560469133246
600.0,-0.052048039870544294
608.0,-0.05300448148683269
616.0,-0.05558374514812403
624.0,-0.06277522144603799
632.0,-0.07027320871853629
640.0,-0.0676326360413376
648.0,-0.05414626184846794
656.0,-0.039744088619605523
664.0,-0.03422337989553737
672.0,-0.03258876468599834
680.0,-0.029508653047787586
688.0,-0.026545417488985888
696.0,-0.025279091008123495
704.0,-0.025162725634809615
712.0,-0.026302388551338932
720.0,-0.029363916977722598
728.0,-0.03193126906276397
736.0,-0.02926243537707001
744.0,-0.02599321438343139
752.0,-0.02472503545603695
760.0,-0.02455832709930252
768.0,-0.024566292468235284
776.0,-0.02450955908807783
784.0,-0.024695462487421087
792.0,-0.02570400718987331
800.0,-0.02731601350662071
808.0,-0.02712278106089637
816.0,-0.026292871733215938
824.0,-0.027091220282926712
832.0,-0.026917252802459015
840.0,-0.025140109086906483
848.0,-0.024068347768935565
856.0,-0.02376047355647367
864.0,-0.023703435281063716
872.0,-0.023799639750419627
880.0,-0.024448886926176982
888.0,-0.02594030273344369
896.0,-0.026814357875100055
904.0,-0.02725796274036269
912.0,-0.03066621595909699
920.0,-0.03353862845513107
928.0,-0.03413758593605264
936.0,-0.03294511833752244
944.0,-0.03180090524676067
952.0,-0.030888779792810787
960.0,-0.028759352529302756
968.0,-0.02617438439397751
976.0,-0.023970176082367605
984.0,-0.02318773140118583
992.0,-0.02341836458384806
1000.0,-0.02467568699037211
1008.0,-0.02676518676419695
1016.0,-0.028713462970304443
1024.0,-0.03272819291527277
1032.0,-0.03514498552235591
1040.0,-0.03267117676074408
1048.0,-0.034016146634531556
1056.0,-0.03632028134897631
1064.0,-0.03190147007576961
1072.0,-0.027919412468197045
1080.0,-0.02497262545943816
1088.0,-0.023330926244611954
1096.0,-0.022362402694716586
1104.0,-0.02129394282904574
1112.0,-0.022112699620992635
1120.0,-0.03118436577890477
1128.0,-0.0532515527348358
1136.0,-0.06428499200372231
1144.0,0.033820760534499755
1152.0,0.3850957771280189
1160.0,0.8443839685946816
1168.0,0.8222668908017202
1176.0,0.35732289711335236
1184.0,0.025844588706982106
1192.0,-0.06298161605765842
1200.0,-0.05063443313204814
1208.0,-0.029245542251993675
1216.0,-0.02071915387146905
1224.0,-0.021008011331030606
1232.0,-0.024953289049323722
1240.0,-0.02825180342143816
1248.0,-0.025866557307901814
1256.0,-0.022822724864626838
1264.0,-0.02308101840606878
1272.0,-0.02553531637588411
1280.0,-0.027518211811624175
1288.0,-0.028052257523444393
1296.0,-0.027288728312815036
1304.0,-0.028978849407166916
1312.0,-0.02987495253994507
1320.0,-0.03137064259588391
1328.0,-0.034263987386545666
1336.0,-0.03515144787934481
1344.0,-0.03346789717333294
1352.0,-0.03013546387510238
1360.0,-0.02921724563926221
1368.0,-0.03140737226212118
1376.0,-0.03666612290461275
1384.0,-0.03855450689970617
1392.0,-0.03391024429767738
1400.0,-0.033675954573266574
1408.0,-0.03760908675732921
1416.0,-0.03727445055422144
1424.0,-0.03416563721172183
1432.0,-0.02894196944517254
1440.0,-0.022080427718359854
1448.0,-0.017939844594963984
1456.0,-0.016857534342306555
1464.0,-0.01680906504560166
1472.0,-0.01665747446236007
1480.0,-0.01652403218308889
1488.0,-0.01770916629043527
1496.0,-0.021881707111080877
1504.0,-0.026829946070874335
1512.0,-0.026374870726123486
1520.0,-0.02083801309229483
1528.0,-0.01710655447922345
1536.0,-0.01815814053462545
1544.0,-0.021621694323222675
1552.0,-0.020859422827145407
1560.0,-0.017170159964362355
1568.0,-0.01530249378630747
1576.0,-0.015572054859511068
1584.0,-0.01724375400709704
1592.0,-0.01809860081863626
1600.0,-0.01652938628332331
1608.0,-0.01569506096660338
1616.0,-0.01655794828042145
1624.0,-0.016863210538501046
1632.0,-0.016281518093044105
1640.0,-0.019819115549039007
1648.0,-0.02719368736170065
1656.0,-0.029290923913102493
1664.0,-0.023747819541384507
1672.0,-0.018468519034373725
1680.0,-0.017102941671854385
1688.0,-0.017567790562643747
1696.0,-0.019448516914516215
1704.0,-0.02045805481767455
1712.0,-0.02399197959139658
1720.0,-0.028749046862100835
1728.0,-0.028743722856404995
1736.0,-0.030458794177565616
1744.0,-0.027667126127866738
1752.0,-0.020068858334467768
1760.0,-0.015021992352809682
1768.0,-0.014275602022045048
1776.0,-0.015725062106579635
1784.0,-0.016145760768611853
1792.0,-0.016362027522673253
1800.0,-0.019254912703079746
1808.0,-0.026997564712383692
1816.0,-0.03974950151889117
1824.0,-0.05277611157458327
1832.0,-0.009990783199076569
1840.0,0.189396121009726
1848.0,0.5304466401385349
1856.0,0.5898606309761243
1864.0,0.26450867380189064
1872.0,0.025292856009086657
1880.0,-0.038788303191388075
1888.0,-0.030258092206864557
1896.0,-0.0169670457857156
1904.0,-0.01513198719491607
1912.0,-0.020102502899792325
1920.0,-0.023929498969995078
1928.0,-0.01818477698241076
1936.0,-0.011026325638309851
1944.0,-0.009021417433390149
1952.0,-0.010365741901350402
1960.0,-0.010652028308655814
1968.0,-0.009407059377938
1976.0,-0.009625320788582152
1984.0,-0.010285588915388213
1992.0,-0.008367136941865595
2000.0,-0.006559584800105507
2008.0,-0.00877252136032467
2016.0,-0.017608346844618008
2024.0,-0.026993104270135942
2032.0,-0.02447923459717563
2040.0,-0.018071591617334185
2048.0,-0.01379878363941232
2056.0,-0.014315520455059409
2064.0,-0.01974155158920794
2072.0,-0.024055828156602423
2080.0,-0.024606275108609774
2088.0,-0.023507300466307
2096.0,-0.022561689411954557
2104.0,-0.020425603900682807
2112.0,-0.018576257174763886
2120.0,-0.013054211274769844
2128.0,-0.005899255169745761
2136.0,-0.0027157312570999445
2144.0,-0.0020845957069803873
2152.0,-0.001932317753657693
2160.0,-0.0018365784210130785
2168.0,-0.0030883277228158728
2176.0,-0.007612508588137472
2184.0,-0.01307120688846134
2192.0,-0.012548222126588989
2200.0,-0.009027085925897791
2208.0,-0.0037573856776805495
2216.0,-0.0009791554682072976
2224.0,-0.0018801675705157578
2232.0,-0.005308441280888993
2240.0,-0.006278238526165737
2248.0,-0.0029771563363431416
2256.0,-0.0017946090880718796
2264.0,-0.0037225785769867395
2272.0,-0.004108757789256618
2280.0,-0.0036039035029451156
2288.0,-0.003739498185925992
2296.0,-0.002271455436335214
2304.0,-0.0013822131129853858
2312.0,-0.0017067088101421018
2320.0,-0.00014639307584943533
2328.0,0.0017169151434662695
2336.0,0.0021247589410058393
2344.0,0.0002717591521386815
2352.0,-0.003739352893464682
2360.0,-0.005226918187269146
2368.0,-0.0028015510477822788
2376.0,0.0007396757235313084
2384.0,0.002421030925358312
2392.0,0.0008172440251229516
2400.0,-0.0023644766831017877
2408.0,-0.0027805159429786412
2416.0,-0.0010477233453753732
2424.0,0.00027348113563781484
2432.0,-0.0019557057866223765
2440.0,-0.007460620362189507
2448.0,-0.009421092402552575
2456.0,-0.009513494468336416
2464.0,-0.007184591360408587
2472.0,-0.008013660119694045
2480.0,-0.008527432014691092
2488.0,-0.007348278688194835
2496.0,-0.012510601115788547
2504.0,-0.018083626646462656
2512.0,-0.00895093262731845
2520.0,0.00015135396946124464
2528.0,0.00014579153716109272
2536.0,0.0026995968078058503
2544.0,0.004395269736831757
2552.0,0.0033661830834901827
2560.0,0.001268874359944226
2568.0,-0.002744866954430103
2576.0,-0.007470022985457074
2584.0,-0.0070653922968322335
2592.0,-0.0042364216837517095
2600.0,-0.0022533820902607294
2608.0,-0.002886718477030267
2616.0,-0.004277713628703644
2624.0,-0.0022961538568922247
2632.0,-0.0017258067967975555
2640.0,-0.003360607123622716
2648.0,-0.006151272904015565
2656.0,-0.004305535752080488
2664.0,-0.004293789612874108
2672.0,-0.006722209784244434
2680.0,-0.00498905412237867
2688.0,-0.005948996604441856
2696.0,-0.007077468022533974
2704.0,-0.007449719018740309
2712.0,-0.009882789135686142
2720.0,-0.012974769027429375
2728.0,-0.021322210205252785
2736.0,-0.027488557366207606
2744.0,-0.02642672096947443
2752.0,-0.020702071829818706
2760.0,-0.015495757721693797
2768.0,-0.009183744650638403
2776.0,-0.0015835093111422921
2784.0,0.004486804616320034
2792.0,0.005930817979455505
2800.0,0.004725627053017628
2808.0,0.0027949846472011277
2816.0,-0.003777739278203837
2824.0,-0.010420355338320872
2832.0,-0.00648788955146699
2840.0,0.0018626505256521438
2848.0,0.004565318496479004
2856.0,0.0023616436395554764
2864.0,-0.002880921775919627
2872.0,-0.007445644184265653
2880.0,-0.00512540571664525
2888.0,-0.000926650522773881
2896.0,-0.0001746885189006419
2904.0,-0.0018996773427877947
2912.0,-0.0039026260999320906
2920.0,-0.0037901219583255357
2928.0,-0.0016485495463567583
2936.0,-0.00031229810241003864
2944.0,0.0033304586696455904
2952.0,0.006278231939490562
2960.0,0.00633431430444295
2968.0,0.0036961906444913503
2976.0,0.0007137576830061308
2984.0,0.001825437671095943
2992.0,0.005203223379831209
3000.0,0.006586062634641969
3008.0,0.0047370052713690035
3016.0,-3.348519982821053e-05
3024.0,-0.005696864153777229
3032.0,-0.010669406837556605
3040.0,-0.015749004723104122
3048.0,-0.01653449256213419
3056.0,-0.011790294094801188
3064.0,-0.009574403419211673
3072.0,-0.011386011487641758
3080.0,-0.0106170029726675
3088.0,-0.003029082749042597
3096.0,0.004271995172841989
3104.0,0.006963258501176083
3112.0,0.007243899746656945
3120.0,0.006845170882163011
3128.0,0.0052421463067663975
3136.0,0.0010055258533640272
3144.0,-0.003883328016260867
3152.0,-0.00633738885598102
3160.0,-0.006368627733952457
3168.0,0.011747376786532737
3176.0,0.0778711842932183
3184.0,0.1522495392976175
3192.0,0.11326910067058657
3200.0,0.035703518430881945
3208.0,-0.00014548845137380735
3216.0,-0.007003332901203752
3224.0,-0.0034870068860562444
3232.0,-0.0014265618489689767
3240.0,-0.0019859160204398624
3248.0,-0.0009732912061144015
3256.0,0.001867957533449342
3264.0,0.0037680289354979023
3272.0,0.0031934226206544077
3280.0,0.0015029797623255306
3288.0,-0.0025360862941948338
3296.0,-0.005711222602778992
3304.0,-0.007189973703539566
3312.0,-0.00747938626648087
3320.0,-0.005972346423490908
3328.0,-0.0036293843688041763
3336.0,0.0002492933693858016
3344.0,0.0050964914884984655
3352.0,0.006254936673545586
3360.0,0.003103457559831252
3368.0,-0.0008198590584282235
3376.0,-0.0013323855903991009
3384.0,3.833876988377916e-05
3392.0,0.0017217774399651265
3400.0,0.0017794419276120784
3408.0,0.0009597478071717814
3416.0,-0.001044365052870569
3424.0,-0.001184937114194773
3432.0,0.002657238035937339
3440.0,0.003230752811279636
3448.0,-0.0001745950619322146
3456.0,-0.00397761759155151
3464.0,-0.003855494934432632
3472.0,-0.0011476036668528475
3480.0,0.0022622636189253364
3488.0,0.0068294701073248806
3496.0,0.008996018313965836
3504.0,0.007867282160762868
3512.0,0.0030398698402762402
3520.0,-0.0030193145562616153
3528.0,-0.0043193013850493225
3536.0,0.0016536217274162254
3544.0,0.004955510520488158
3552.0,0.003266759516681153
3560.0,0.001116514283137011
3568.0,0.0010846465191926913
3576.0,0.001098669694713683
3584.0,0.003002845968718653
3592.0,0.0052410498105538465
3600.0,0.0039050018366734883
3608.0,-0.00023973265217366911
3616.0,-0.0014895157471193428
3624.0,-0.0035646412803443557
3632.0,-0.0021417068711976567
3640.0,0.0034133160276963613
3648.0,0.010127511633458002
3656.0,0.014455535595692633
3664.0,0.014308940781678891
3672.0,0.009982232234866625
3680.0,0.003176277315556156
3688.0,-0.0009189668789580224
3696.0,0.0035311004883896786
3704.0,0.008780099257047222
3712.0,0.0077962208124025085
3720.0,0.0008321550118033924
3728.0,-0.009004118126469188
3736.0,-0.014585540579949303
3744.0,-0.012197103638266715
3752.0,-0.0026081138622326564
3760.0,0.006563558442175857
3768.0,0.01132900102101097
3776.0,0.010114435119481308
3784.0,0.004035055546483007
3792.0,0.0008328221192499389
3800.0,0.004860125962010034
3808.0,0.007702072540890321
3816.0,0.008009297133733198
3824.0,0.009049184377377102
3832.0,0.006603386596370324
3840.0,0.0006468390047019619
3848.0,0.009357064280722607
3856.0,0.05858239269103133
3864.0,0.11644850452681603
3872.0,0.0903703276458896
3880.0,0.03585511885464758
3888.0,0.011918892461423893
3896.0,0.009390157623034318
3904.0,0.01239882069863166
3912.0,0.014757922868395385
3920.0,0.01579203723495482
3928.0,0.014692190087635046
3936.0,0.008494376615550974
3944.0,-0.003775312218670341
3952.0,-0.018069139647344974
3960.0,-0.029692724944513988
3968.0,-0.030921694512347796
3976.0,-0.02832249696518119
3984.0,-0.022432002552408237
3992.0,-0.013324916065911846
4000.0,-0.011068130453286555
4008.0,-0.014585044211089448
4016.0,-0.0169974094751701
4024.0,-0.014951142623027526
4032.0,-0.012772464582956061
4040.0,-0.012742237094500682
4048.0,-0.015511008811374275
4056.0,-0.015496338836123032
4064.0,-0.017272720069182543
4072.0,-0.02017194380112795
4080.0,-0.018920300192498626
4088.0,-0.01906411855571244
4096.0,-0.021723196799777397
4104.0,-0.024095916485540953
4112.0,-0.025961780596987512
4120.0,-0.023809914027527003
4128.0,-0.021529101179050984
4136.0,-0.01997347050918899
4144.0,-0.01633792293582756
4152.0,-0.009903719537554524
4160.0,-0.006330165292630691
4168.0,-0.007038832499430424
4176.0,-0.00898933696871348
4184.0,-0.01275778680222574
4192.0,-0.012867221125710041
4200.0,-0.009212151482133281
4208.0,-0.010343388546741463
4216.0,-0.014534329126418435
4224.0,-0.01659689433744255
4232.0,-0.01616044328908692
4240.0,-0.015093063867894697
4248.0,-0.020439007002493636
4256.0,-0.02818099249963985
4264.0,-0.028905994746435754
4272.0,-0.023767626646156465
4280.0,-0.02156049881171179
4288.0,-0.021395996199638903
4296.0,-0.019176289975381264
4304.0,-0.015251823782530392
4312.0,-0.011231502986319563
4320.0,-0.011844242540192132
4328.0,-0.016747376770120847
4336.0,-0.023044872462670205
4344.0,-0.023589527962772132
4352.0,-0.018682605427393063
4360.0,-0.01712776791415679
4368.0,-0.021352268784511016
4376.0,-0.020447752177663835
4384.0,-0.0143893372503286
4392.0,-0.013839233211018931
4400.0,-0.020575404464591003
4408.0,-0.031178539333039258
4416.0,-0.034996130105331875
4424.0,-0.032486490188272384
4432.0,-0.028386407769320623
4440.0,-0.024707024344918924
4448.0,-0.02058117437207236
4456.0,-0.017083872810661274
4464.0,-0.016167916447045044
4472.0,-0.01690893635032682
4480.0,-0.018128465095888734
4488.0,-0.021329594439300683
4496.0,-0.022037328380840826
4504.0,-0.023509198745036528
4512.0,-0.028176923977529415
4520.0,-0.029510281760319612
4528.0,-0.031878109781570615
4536.0,-0.03294778950046989
4544.0,-0.028082397620469924
4552.0,-0.026915122543174796
4560.0,-0.02769541428996576
4568.0,-0.0264457678898128
4576.0,-0.02269090142402883
4584.0,-0.02145786634808921
4592.0,-0.02380627148020573
4600.0,-0.024798523574281892
4608.0,-0.02520404099754072
4616.0,-0.02395236117471172
4624.0,-0.024275699223348553
4632.0,-0.027338916403034253
4640.0,-0.02992821609820516
4648.0,-0.02666714921388235
4656.0,-0.026844513265896784
4664.0,-0.040818168775822734
4672.0,-0.06454842823138411
4680.0,-0.042372332484168725
4688.0,0.1500993647906641
4696.0,0.5693425337659046
4704.0,0.8152702676390646
4712.0,0.520089706245519
4720.0,0.13390551790205774
4728.0,-0.02715677983418019
4736.0,-0.044649992109179866
4744.0,-0.02526908918104899
4752.0,-0.013710246868177093
4760.0,-0.013557033678373059
4768.0,-0.011157949400343996
4776.0,-0.006673626852534971
4784.0,-0.004063326446060668
4792.0,-0.004241238270706113
4800.0,-0.0071023744386746685
4808.0,-0.011577542298657777
4816.0,-0.012621909585750088
4824.0,-0.00999704601469329
4832.0,-0.008028915661795012
4840.0,-0.010708583612035664
4848.0,-0.01483616418585537
4856.0,-0.012860339775198891
4864.0,-0.011282821555920447
4872.0,-0.014632433464673418
4880.0,-0.017636451044641295
4888.0,-0.01880965281901337
4896.0,-0.018610774386725586
4904.0,-0.018736797490345892
4912.0,-0.018611553425846285
4920.0,-0.01680700064390928
4928.0,-0.018799037796907475
4936.0,-0.02379816053716506
4944.0,-0.026217478846055683
4952.0,-0.020144769733334417
4960.0,-0.01274296840513956
4968.0,-0.012569145083081615
4976.0,-0.01684440350497902
4984.0,-0.020152757687564117
4992.0,-0.0209109911952117
5000.0,-0.01965126646392338
5008.0,-0.01595959797688983
5016.0,-0.012960863149241091
5024.0,-0.012898649256028578
5032.0,-0.011958271220511506
5040.0,-0.010713867885371951
5048.0,-0.010296258657228899
5056.0,-0.010367262885381569
5064.0,-0.01077077175366742
5072.0,-0.011938524570479054
5080.0,-0.014065789127278516
5088.0,-0.015177206113091622
5096.0,-0.015138029127045077
5104.0,-0.015143715991846517
5112.0,-0.017387448664978735
5120.0,-0.023193931080721323
5128.0,-0.02526225691075885
5136.0,-0.02571433740933796
5144.0,-0.02972269111448976
5152.0,-0.03227307144271672
5160.0,-0.02720111063459677
5168.0,-0.022180358118880535
5176.0,-0.02124596425002998
5184.0,-0.02010017013788711
5192.0,-0.019055521467770516
5200.0,-0.01838210120784762
5208.0,-0.017694930330751663
5216.0,-0.01691526408345024
5224.0,-0.017678504395842752
5232.0,-0.024873428205552835
5240.0,-0.03416788199490275
5248.0,-0.031623366813423086
5256.0,-0.023814145890387824
5264.0,-0.02009547857695368
5272.0,-0.021160071731312
5280.0,-0.02302569200142929
5288.0,-0.023477710389542862
5296.0,-0.024368051604283753
5304.0,-0.028157742857610874
5312.0,-0.030063642385706416
5320.0,-0.025409644401283415
5328.0,-0.019925090187490377
5336.0,-0.019194646656707493
5344.0,-0.023701108333052234
5352.0,-0.028822593256099614
5360.0,-0.029589943510544572
5368.0,-0.028322553649736428
5376.0,-0.024420930165880393
5384.0,-0.02296150157603232
5392.0,-0.02620135212246465
5400.0,-0.029235383418180588
5408.0,-0.029909479365857597
5416.0,-0.025357861081492454
5424.0,-0.021456853992745727
5432.0,-0.022578809683300036
5440.0,-0.0281483462935026
5448.0,-0.03149656768973555
5456.0,-0.028558427371018994
5464.0,-0.025024697527773674
5472.0,-0.024264378846943394
5480.0,-0.027066719779702465
5488.0,-0.027392678265993863
5496.0,-0.024203497279586518
5504.0,-0.023440563515694846
5512.0,-0.02825493325346135
5520.0,-0.046452957258319036
5528.0,-0.06929295943231359
5536.0,-0.021554962807522563
5544.0,0.2552018667239746
5552.0,0.7745939691736008
5560.0,1.0082483401141062
5568.0,0.6314687523672348
5576.0,0.15263402931840966
5584.0,-0.04664378685410304
5592.0,-0.06540755765147963
5600.0,-0.0445712647281584
5608.0,-0.034941682761194796
5616.0,-0.031574774554473654
5624.0,-0.02980547703916023
5632.0,-0.02680124345500294
5640.0,-0.023660747702710257
5648.0,-0.02331798897265542
5656.0,-0.026662358948088674
5664.0,-0.03209027982626151
5672.0,-0.033916926108369515
5680.0,-0.0300614907653634
5688.0,-0.027775330985648484
5696.0,-0.02809566086245796
5704.0,-0.026088754682594945
5712.0,-0.024538488664112724
5720.0,-0.028429540107752557
5728.0,-0.03582941848350395
5736.0,-0.03693680756956558
5744.0,-0.031485298628143414
5752.0,-0.025930179428965135
5760.0,-0.02808425151459133
5768.0,-0.03739798002057547
5776.0,-0.04406966453756397
5784.0,-0.04346583933473896
5792.0,-0.04106440673265558
5800.0,-0.03899373710421585
5808.0,-0.03599557946083132
5816.0,-0.03194637770108708
5824.0,-0.029079648360758797
5832.0,-0.026891175636869838
5840.0,-0.023620090229223574
5848.0,-0.0217484079339949
5856.0,-0.021335911072502912
5864.0,-0.02139374615280293
5872.0,-0.0213880675079736
5880.0,-0.021261987331947712
5888.0,-0.02135825236418969
5896.0,-0.022438481801128687
5904.0,-0.024876354194624976
5912.0,-0.027434793900450206
5920.0,-0.030505456074467568
5928.0,-0.029467081019825744
5936.0,-0.0245949162362388
5944.0,-0.021524023991644686
5952.0,-0.020758423817981483
5960.0,-0.0207451200692818
5968.0,-0.02070744913175224
5976.0,-0.021102788940842547
5984.0,-0.02343744673239821
5992.0,-0.028334512008576215
6000.0,-0.031450013810797546
6008.0,-0.030129750090668445
6016.0,-0.028091738502523726
6024.0,-0.024479492620417424
6032.0,-0.021690528494042068
6040.0,-0.02187009609772172
6048.0,-0.024806199938072912
6056.0,-0.027676795880216102
6064.0,-0.027490563915313796
6072.0,-0.02678111091195081
6080.0,-0.026420868816296027
6088.0,-0.02631552439728822
6096.0,-0.025845432616356398
6104.0,-0.024777463058485064
6112.0,-0.024820696129012935
6120.0,-0.024910872565942262
6128.0,-0.02542309677943158
6136.0,-0.027052461483905246
6144.0,-0.027164408027253104
6152.0,-0.026062792971632144
6160.0,-0.025364018860857984
6168.0,-0.02426053927736483
6176.0,-0.025321806294407317
6184.0,-0.028038173768915684
6192.0,-0.030439822935921783
6200.0,-0.03234627769947767
6208.0,-0.03391264786836041
6216.0,-0.03162637190700552
6224.0,-0.027144817530636838
6232.0,-0.02397768056765552
6240.0,-0.02528696791493019
6248.0,-0.03016447658738874
6256.0,-0.03152523282448487
6264.0,-0.027577652911588108
6272.0,-0.025654367315067334
6280.0,-0.026004977546007467
6288.0,-0.02693556795122561
6296.0,-0.02983026800019842
6304.0,-0.031001353045864873
6312.0,-0.031046670916294462
6320.0,-0.029430622188756007
6328.0,-0.028420068448006576
6336.0,-0.02739060027637561
6344.0,-0.025148883897197587
6352.0,-0.0333037967374026
6360.0,-0.05743172409895939
6368.0,-0.06703737779700182
6376.0,0.05137156289027044
6384.0,0.4533666987359341
6392.0,0.9673323013335049
6400.0,0.9852565560938586
6408.0,0.48062524289987363
6416.0,0.06393090962698277
6424.0,-0.06511065078234449
6432.0,-0.05939800628320325
6440.0,-0.03737021695026293
6448.0,-0.03026852555777006
6456.0,-0.03186440621706078
6464.0,-0.03262299467281477
6472.0,-0.03296703629029119
6480.0,-0.03365235381875056
6488.0,-0.033706882393459994
6496.0,-0.03278223170501536
6504.0,-0.03185730108567502
6512.0,-0.03126688243109253
6520.0,-0.0315018650510334
6528.0,-0.03127929009812134
6536.0,-0.03244559629112668
6544.0,-0.03341519037647985
6552.0,-0.03662072931950642
6560.0,-0.03971904514769289
6568.0,-0.03963875920039237
6576.0,-0.03682243631569299
6584.0,-0.034911320213958943
6592.0,-0.03840046596866387
6600.0,-0.04615339814194903
6608.0,-0.048609907527339374
6616.0,-0.04539987336796138
6624.0,-0.044669914036683175
6632.0,-0.04563774379326564
6640.0,-0.043974937252494156
6648.0,-0.04079411235034852
6656.0,-0.03748909177905545
6664.0,-0.03580015837480267
6672.0,-0.03316295821711066
6680.0,-0.0300265826304151
6688.0,-0.027172510524828216
6696.0,-0.026853884858779528
6704.0,-0.03038714372959654
6712.0,-0.031238254314098532
6720.0,-0.028314333489206367
6728.0,-0.02800143427436885
6736.0,-0.029582534732094143
6744.0,-0.026766431038195624
6752.0,-0.023200076187041365
6760.0,-0.023978617610276417
6768.0,-0.023610809211813053
6776.0,-0.020317549081812426
6784.0,-0.018204185268770975
6792.0,-0.017549947668676298
6800.0,-0.017871148561592363
6808.0,-0.01986687538910655
6816.0,-0.024083263319486285
6824.0,-0.026863604345246192
6832.0,-0.024124274437456635
6840.0,-0.02031974395213328
6848.0,-0.019778582397881737
6856.0,-0.020763803691510565
6864.0,-0.024089459978353663
6872.0,-0.03282055241473036
6880.0,-0.038682785780288866
6888.0,-0.034172419906656766
6896.0,-0.03056561284570653
6904.0,-0.029961601384541327
6912.0,-0.028401354810600462
6920.0,-0.02635094674259488
6928.0,-0.024774036462430125
6936.0,-0.025299366048590906
6944.0,-0.025567755339021024
6952.0,-0.025864504543882016
6960.0,-0.02702920361146226
6968.0,-0.027927905078319784
6976.0,-0.02994409438788484
6984.0,-0.03625296811894629
6992.0,-0.03802281089539238
7000.0,-0.03298629473594361
7008.0,-0.02744426736159139
7016.0,-0.02482306967891785
7024.0,-0.02871601907732047
7032.0,-0.033175119078025235
7040.0,-0.03631194786062436
7048.0,-0.041825196376818266
7056.0,-0.04523568780444214
7064.0,-0.04530581169196936
7072.0,-0.03892677470520746
7080.0,-0.0340200895509067
7088.0,-0.03459562945587371
7096.0,-0.03628500832985684
7104.0,-0.03234703010047228
7112.0,-0.029887159711735292
7120.0,-0.03169971321004837
7128.0,-0.033716353944394956
7136.0,-0.03450642052487242
7144.0,-0.03273740016332763
7152.0,-0.028781381829105748
7160.0,-0.02716825346136797
7168.0,-0.030643592436737574
7176.0,-0.04017426761455017
7184.0,-0.05882752561566731
7192.0,-0.0732416698541264
7200.0,0.006588677891997977
7208.0,0.35124386513088973
7216.0,0.9169249387978544
7224.0,1.1414855711845207
7232.0,0.7544629115942442
7240.0,0.2110097971640898
7248.0,-0.04806531915223114
7256.0,-0.08904946433274474
7264.0,-0.06849234213399545
7272.0,-0.046904314266366466
7280.0,-0.03484033728430523
7288.0,-0.033926550517663905
7296.0,-0.035257516768851485
7304.0,-0.032386781991079035
7312.0,-0.03269865397351927
7320.0,-0.03652874114174744
7328.0,-0.04001167924354969
7336.0,-0.045319853395432715
7344.0,-0.04696513687350709
7352.0,-0.044361871951646474
7360.0,-0.04546599749082769
7368.0,-0.04428937501448676
7376.0,-0.04166581063701007
7384.0,-0.03886177632853588
7392.0,-0.03141290212779685
7400.0,-0.02870313028224635
7408.0,-0.03284775710913807
7416.0,-0.036491501742743584
7424.0,-0.03946868928716578
7432.0,-0.0438058997413387
7440.0,-0.04817653081974505
7448.0,-0.05522684660472418
7456.0,-0.05699045132246955
7464.0,-0.04988435595549091
7472.0,-0.04228526268248096
7480.0,-0.03358870253446708
7488.0,-0.026312169116069137
7496.0,-0.024534954740556995
7504.0,-0.02622775198670338
7512.0,-0.029129290869729735
7520.0,-0.030843597299475525
7528.0,-0.028732326457498167
7536.0,-0.023035565947726506
7544.0,-0.018773774946711817
7552.0,-0.018966767796053097
7560.0,-0.021930069218648228
7568.0,-0.024285000969860096
7576.0,-0.028738334048180516
7584.0,-0.033625889628862905
7592.0,-0.03068296873317943
7600.0,-0.026407778892951227
7608.0,-0.026521637379024163
7616.0,-0.02886213848819957
7624.0,-0.03020443980375627
7632.0,-0.02871909101701533
7640.0,-0.025883963517560966
7648.0,-0.023732486495558047
7656.0,-0.025588671605855953
7664.0,-0.03157202018759528
7672.0,-0.03339669251695829
7680.0,-0.031029502299441666
7688.0,-0.0343453310889765
7696.0,-0.0393010419301961
7704.0,-0.041153269242930224
7712.0,-0.04013029381460673
7720.0,-0.03480993241591072
7728.0,-0.027141272395899016
7736.0,-0.025103520781321546
7744.0,-0.028612899317884917
7752.0,-0.03143625574992163
7760.0,-0.027061653053512477
7768.0,-0.020981531862605696
7776.0,-0.021209574759860857
7784.0,-0.025996531762014944
7792.0,-0.030768769831403222
7800.0,-0.03625315904693257
7808.0,-0.04313511671846619
7816.0,-0.04378019476997195
7824.0,-0.03769869366391698
7832.0,-0.03493462260967873
7840.0,-0.034010690858270624
7848.0,-0.03247101334138326
7856.0,-0.033053437695758935
7864.0,-0.0339867384173685
7872.0,-0.03378863094563573
7880.0,-0.036727964403383176
7888.0,-0.03864202729793537
7896.0,-0.036708348825575984
7904.0,-0.03571900788718793
7912.0,-0.03685018869350292
7920.0,-0.03641138880019197
7928.0,-0.03126940705003056
7936.0,-0.02460047307477822
7944.0,-0.021126317504979925
7952.0,-0.021827538568064
7960.0,-0.02359670480713298
7968.0,-0.02397113223493562
7976.0,-0.0319853449806226
7984.0,-0.057459218045406824
7992.0,-0.07155586704322418
8000.0,0.045738232725281124
8008.0,0.4586423664802293
8016.0,0.9867542231995454
8024.0,1.0258593083360588
8032.0,0.5256226765863745
8040.0,0.08243227092912617
8048.0,-0.0662493959053118
8056.0,-0.06634525611594012
8064.0,-0.038936391180640094
8072.0,-0.022949410913632444
8080.0,-0.020640039036261177
8088.0,-0.022754704413176174
8096.0,-0.02642835017803641
8104.0,-0.027645077003796495
8112.0,-0.02819532525076287
8120.0,-0.03245858748655207
8128.0,-0.03646093180020202
8136.0,-0.03607503101960972
8144.0,-0.03561705837036076
8152.0,-0.03673865742259164
8160.0,-0.03681482631811001
8168.0,-0.036959404432049585
8176.0,-0.04404083862721685
8184.0,-0.05181591109408182
8192.0,-0.050825817831783415
8200.0,-0.04661545026536735
8208.0,-0.043564315783037884
8216.0,-0.04243835230126372
8224.0,-0.0430987410699583
8232.0,-0.0487892558397431
8240.0,-0.05402412987313964
8248.0,-0.050478084528946685
8256.0,-0.043235204614050886
8264.0,-0.033855012301460236
8272.0,-0.030994565269045902
8280.0,-0.033660543726333085
8288.0,-0.03383851382825268
8296.0,-0.029272000892952815
8304.0,-0.025364336600909778
8312.0,-0.0247526200276345
8320.0,-0.024912280208258
8328.0,-0.025215992842330757
8336.0,-0.02698568905066976
8344.0,-0.030513501530738556
8352.0,-0.030925357641658414
8360.0,-0.027949417621135886
8368.0,-0.026486591814187284
8376.0,-0.028106938329918348
8384.0,-0.032183609104734286
8392.0,-0.03522757704744114
8400.0,-0.03671793763772796
8408.0,-0.03559136664643174
8416.0,-0.032476079327548674
8424.0,-0.029818099892466123
8432.0,-0.028500287070033506
8440.0,-0.03125674371081304
8448.0,-0.032311379332577814
8456.0,-0.030914739043575598
8464.0,-0.03106724258656819
8472.0,-0.031530281314961286
8480.0,-0.03330809399652365
8488.0,-0.035347042171131396
8496.0,-0.03553921654303038
8504.0,-0.036269658432517615
8512.0,-0.036809849211097916
8520.0,-0.03636659832224115
8528.0,-0.033061414728535285
8536.0,-0.027399883144689594
8544.0,-0.02674246025700182
8552.0,-0.03298740349425162
8560.0,-0.04082432755907723
8568.0,-0.04221679037806064
8576.0,-0.03758594600179845
8584.0,-0.03096464343226772
8592.0,-0.029409884069352066
8600.0,-0.03303824104377221
8608.0,-0.0347522169624088
8616.0,-0.03438918051269302
8624.0,-0.034456001700628874
8632.0,-0.03573344099973733
8640.0,-0.04018181293622327
8648.0,-0.042443259334830216
8656.0,-0.04404818670115708
8664.0,-0.04269649153941763
8672.0,-0.038277432970725285
8680.0,-0.03824153861225337
8688.0,-0.04240113236607746
8696.0,-0.04549126771234761
8704.0,-0.04703567671484819
8712.0,-0.0423365184970669
8720.0,-0.03805494331003037
8728.0,-0.038758940533243406
8736.0,-0.04110938537956713
8744.0,-0.045203725359285046
8752.0,-0.05015130639372919
8760.0,-0.05795001655223841
8768.0,-0.07739704741879169
8776.0,-0.0791128464573801
8784.0,0.06187166541054119
8792.0,0.506369639722374
8800.0,1.0347469768530324
8808.0,1.051916243006701
8816.0,0.5475475972380481
8824.0,0.09877930661451305
8832.0,-0.05412649691052419
8840.0,-0.05703701143531351
8848.0,-0.03316898346647235
8856.0,-0.01971560030926323
8864.0,-0.018915660199863026
8872.0,-0.022941718354391884
8880.0,-0.027819525138367406
8888.0,-0.029207801214760746
8896.0,-0.029281002537007713
8904.0,-0.0304667656550776
8912.0,-0.02987007196500902
8920.0,-0.02695183403054256
8928.0,-0.02512627096327183
8936.0,-0.02457653879075627
8944.0,-0.02317736816865649
8952.0,-0.023801442040907006
8960.0,-0.027454056543375252
8968.0,-0.03191870974737695
8976.0,-0.03233175910661659
8984.0,-0.030102200353143385
8992.0,-0.030927177449962408
9000.0,-0.03738432923542694
9008.0,-0.04354489556282637
9016.0,-0.04502267598617834
9024.0,-0.04180953820829292
9032.0,-0.03893171964285195
9040.0,-0.0367308476447636
9048.0,-0.034965307599111206
9056.0,-0.037556222292899524
9064.0,-0.044609373693737936
9072.0,-0.04421869325782549
9080.0,-0.03397547603380339
9088.0,-0.027187889801213876
9096.0,-0.02508812526313447
9104.0,-0.021576337590993398
9112.0,-0.01851955562035544
9120.0,-0.020472739074775162
9128.0,-0.02383064561108548
9136.0,-0.026235682061555705
9144.0,-0.023278973756396933
9152.0,-0.020386319321891864
9160.0,-0.024185883764275808
9168.0,-0.027581584621527048
9176.0,-0.025892066855959923
9184.0,-0.024560454900114697
9192.0,-0.025317784373528555
9200.0,-0.02457452028406431
9208.0,-0.02182657885821422
9216.0,-0.020669987236084625
9224.0,-0.020416873643012277
9232.0,-0.0197205212582971
9240.0,-0.020454917835033386
9248.0,-0.02322922050434963
9256.0,-0.025769475680531447
9264.0,-0.027367089952220987
9272.0,-0.02753845651463449
9280.0,-0.025062222915817747
9288.0,-0.019941712130528633
9296.0,-0.018474964809610594
9304.0,-0.023857442202808356
9312.0,-0.029146783490821258
9320.0,-0.02983695131354792
9328.0,-0.02812713577610456
9336.0,-0.02656715798538222
9344.0,-0.028905054413715058
9352.0,-0.030627801637765722
9360.0,-0.030288583832979114
9368.0,-0.03245107731959181
9376.0,-0.03736571051596401
9384.0,-0.03941544971234825
9392.0,-0.03527650241772119
9400.0,-0.0317750016802172
9408.0,-0.029477450627100547
9416.0,-0.027046498018771643
9424.0,-0.02857928619938071
9432.0,-0.03224499974770008
9440.0,-0.034737151875897244
9448.0,-0.036680192665369614
9456.0,-0.03808265053825939
9464.0,-0.037231813369988064
9472.0,-0.03642175123934217
9480.0,-0.03558324021992187
9488.0,-0.03313509350121463
9496.0,-0.033607966446188575
9504.0,-0.03559670060722612
9512.0,-0.0339198446906324
9520.0,-0.031750726584332055
9528.0,-0.03149416631227703
9536.0,-0.03546651749296618
9544.0,-0.04689032068341198
9552.0,-0.0655608006438145
9560.0,-0.0785562307511974
9568.0,0.0016861336504806462
9576.0,0.33738039084766913
9584.0,0.8689324727761017
9592.0,1.0196176164685808
9600.0,0.5845539467359759
9608.0,0.11842898368577148
9616.0,-0.06008540518496329
9624.0,-0.07064466990264852
9632.0,-0.04668615437235574
9640.0,-0.03517100979141509
9648.0,-0.03459776605689162
9656.0,-0.033696417014196435
9664.0,-0.03377088306759717
9672.0,-0.03447740790694949
9680.0,-0.03234935671177601
9688.0,-0.028526045394178846
9696.0,-0.028057871265333493
9704.0,-0.029814052983506114
9712.0,-0.031233466048797617
9720.0,-0.030968523122785332
9728.0,-0.030597266647069202
9736.0,-0.03049746604153045
9744.0,-0.03065161442751777
9752.0,-0.03139758923135587
9760.0,-0.03676368859679402
9768.0,-0.04264445708617397
9776.0,-0.03767283933559866
9784.0,-0.03157577771214112
9792.0,-0.033377395950804
9800.0,-0.03827390701956322
9808.0,-0.039981100703455806
9816.0,-0.043050946330541226
9824.0,-0.047652301730284286
9832.0,-0.046322656041636455
9840.0,-0.0429097694718948
9848.0,-0.04424167705688879
9856.0,-0.04190796925177367
9864.0,-0.035855468865965225
9872.0,-0.03247585996280123
9880.0,-0.03112309763466998
9888.0,-0.029088548521391533
9896.0,-0.025964779385815748
9904.0,-0.02479914584889275
9912.0,-0.028388732669229064
9920.0,-0.03205615243652558
9928.0,-0.03620343942961457
9936.0,-0.03803261980975324
9944.0,-0.032570549310756175
9952.0,-0.02912079732199292
9960.0,-0.03011517496158487
9968.0,-0.029564439122679954
9976.0,-0.029821860318987297
9984.0,-0.034162704911681586
9992.0,-0.03835523906751747
10000.0,-0.03937176105762319
10008.0,-0.03766298833446836
10016.0,-0.036549946399761564
10024.0,-0.03622005658378791
10032.0,-0.03545079104655586
10040.0,-0.03347945013706488
10048.0,-0.0317221016634728
10056.0,-0.029991915007693538
10064.0,-0.030733283682888527
10072.0,-0.036157848978711535
10080.0,-0.04204204537180348
10088.0,-0.04374711132097724
10096.0,-0.03947594112863893
10104.0,-0.03532237960894167
10112.0,-0.034490393970048154
10120.0,-0.033131275715367364
10128.0,-0.02867905295954562
10136.0,-0.024276814057282957
10144.0,-0.02603309541681454
10152.0,-0.03249639877725413
10160.0,-0.03901998880590486
10168.0,-0.0412472966296621
10176.0,-0.039566943676366706
10184.0,-0.042305170547877954
10192.0,-0.04456703275914342
10200.0,-0.04129737566086751
10208.0,-0.03633628307982992
10216.0,-0.032037257031840155
10224.0,-0.029826770085888132
10232.0,-0.030365874140457525
10240.0,-0.030054038203723567
10248.0,-0.028382503406448267
10256.0,-0.02875665634019984
10264.0,-0.028945685612466503
10272.0,-0.030820454013337856
10280.0,-0.039976077766518195
10288.0,-0.05912210086530028
10296.0,-0.08003571619255287
10304.0,-0.030236112365716442
10312.0,0.2529735459188473
10320.0,0.8040950281986958
10328.0,1.1224238311002372
10336.0,0.808885742323735
10344.0,0.2608733971430809
10352.0,-0.021837926103513528
10360.0,-0.07384469278942411
10368.0,-0.05827723641842751
10376.0,-0.04378461197725589
10384.0,-0.03767853154952109
10392.0,-0.03525439030629589
10400.0,-0.0377133256247959
10408.0,-0.04116155786806671
10416.0,-0.04227990385140109
10424.0,-0.04096599582411206
10432.0,-0.04020628959681498
10440.0,-0.04046094063430747
10448.0,-0.042438060653548756
10456.0,-0.04433690956060671
10464.0,-0.04448795147162403
10472.0,-0.04077665692271205
10480.0,-0.03854140620345307
10488.0,-0.03916792073303041
10496.0,-0.040558825558549984
10504.0,-0.041847341346242614
10512.0,-0.04388850155994801
10520.0,-0.04562692287543029
10528.0,-0.045174135418306914
10536.0,-0.04603698268193027
10544.0,-0.047749625370667716
10552.0,-0.05079609849931996
10560.0,-0.05001602095848896
10568.0,-0.045685600145096775
10576.0,-0.040717590982987543
10584.0,-0.03610248625154068
10592.0,-0.034002260835876
10600.0,-0.03265279095398867
10608.0,-0.02807107467229732
10616.0,-0.027285027172869656
10624.0,-0.031796670206319426
10632.0,-0.035194260980089445
10640.0,-0.034559360144528956
10648.0,-0.03166273685564032
10656.0,-0.031373208134025624
10664.0,-0.03451534498397848
10672.0,-0.03608346732689076
10680.0,-0.03522631839654872
10688.0,-0.03514593144552205
10696.0,-0.03989347030604845
10704.0,-0.04534042372625329
10712.0,-0.04497270305358654
10720.0,-0.03656143431917229
10728.0,-0.03085021372126603
10736.0,-0.03513943019552239
10744.0,-0.041314711484337165
10752.0,-0.043250749934385845
10760.0,-0.04052207767415728
10768.0,-0.038502907420443475
10776.0,-0.038341096429005614
10784.0,-0.03666013460833578
10792.0,-0.031493348016493256
10800.0,-0.02836916209439363
10808.0,-0.031362125532432686
10816.0,-0.03971872278651583
10824.0,-0.045070530274264275
10832.0,-0.04460513623865475
10840.0,-0.04273682823424487
10848.0,-0.04055530400774792
10856.0,-0.039448470828262604
10864.0,-0.042601881072566995
10872.0,-0.04818004514023493
10880.0,-0.0513454474983392
10888.0,-0.04862570879467748
10896.0,-0.042927643069782286
10904.0,-0.03997775209171183
10912.0,-0.03729526210773921
10920.0,-0.03543332202106562
10928.0,-0.03592217299007176
10936.0,-0.03663331730198007
10944.0,-0.03815956180735271
10952.0,-0.03980371012484818
10960.0,-0.0383366062738634
10968.0,-0.03932064251190927
10976.0,-0.0550774289716297
10984.0,-0.08392715971347049
10992.0,-0.058927363668128264
11000.0,0.18599151966678684
11008.0,0.7454770553498489
11016.0,1.175448372077082
11024.0,0.9790481566129545
11032.0,0.39976850052262514
11040.0,0.017971090450711026
11048.0,-0.0817937740835651
11056.0,-0.06979006230911791
11064.0,-0.0499006134937124
11072.0,-0.0427468130993601
11080.0,-0.04185903230630546
11088.0,-0.041137468059656394
11096.0,-0.04036076062610549
11104.0,-0.04046214666386955
11112.0,-0.04075482302765294
11120.0,-0.044470168303542085
11128.0,-0.04947163792834129
11136.0,-0.04932109290297071
11144.0,-0.04573641697262722
11152.0,-0.044275347136157425
11160.0,-0.04511053309011869
11168.0,-0.045734670610516205
11176.0,-0.04676260946706724
11184.0,-0.053136810041699324
11192.0,-0.05979147654978373
11200.0,-0.06273018776805851
11208.0,-0.06164887270831574
11216.0,-0.05435418959495774
11224.0,-0.048625359090215356
11232.0,-0.048054619372336564
11240.0,-0.05295858912056835
11248.0,-0.056950846534843856
11256.0,-0.056088591855658176
11264.0,-0.053787472713964904
11272.0,-0.053653882355267045
11280.0,-0.0479687154828484
11288.0,-0.04124537179245346
11296.0,-0.04030673356936979
11304.0,-0.04590440300282164
11312.0,-0.04889379599126653
11320.0,-0.04471008500469975
11328.0,-0.038917700906680425
11336.0,-0.03641628757908427
11344.0,-0.037313789891596116
11352.0,-0.03622282801749133
11360.0,-0.03339570223336759
11368.0,-0.032843863111577686
11376.0,-0.034992149736448985
11384.0,-0.03435163302028372
11392.0,-0.03527568606452156
11400.0,-0.03907673555112423
11408.0,-0.040612771867767954
11416.0,-0.038770551102918015
11424.0,-0.03840118122693688
11432.0,-0.042916087935372715
11440.0,-0.04826122974650824
11448.0,-0.04706348343668137
11456.0,-0.04480496178538513
11464.0,-0.04683106629246074
11472.0,-0.05194679558237668
11480.0,-0.05091135393991645
11488.0,-0.042439055054418064
11496.0,-0.03660521503740551
11504.0,-0.038093824508625564
11512.0,-0.042611568161566825
11520.0,-0.04555743475012902
11528.0,-0.04524356829313773
11536.0,-0.04455340707813611
11544.0,-0.044045709383011354
11552.0,-0.042948644428463176
11560.0,-0.04123072228421397
11568.0,-0.04101119652324263
11576.0,-0.04109856999718729
11584.0,-0.04158719590826756
11592.0,-0.04355754748781917
11600.0,-0.04484040802126815
11608.0,-0.04528634327121314
11616.0,-0.04530093501809065
11624.0,-0.04464966272321419
11632.0,-0.0427788872216246
11640.0,-0.04109584977522238
11648.0,-0.04735401376940628
11656.0,-0.07310976497111045
11664.0,-0.0939867764442443
11672.0,0.003097085566730024
11680.0,0.39447689528681246
11688.0,0.9857695808007989
11696.0,1.1870374650969184
11704.0,0.7695170989174794
11712.0,0.20760468671416535
11720.0,-0.048831511755230615
11728.0,-0.08401286073172805
11736.0,-0.06257901640244556
11744.0,-0.0488246696164195
11752.0,-0.04663401853154114
11760.0,-0.04635145106842228
11768.0,-0.04568306875380477
11776.0,-0.045346515746323084
11784.0,-0.04494631657200312
11792.0,-0.043758875351257255
11800.0,-0.042048801231749665
11808.0,-0.042500065883140745
11816.0,-0.04414270513885206
11824.0,-0.0436504615310524
11832.0,-0.042390182566920745
11840.0,-0.04598780873570789
11848.0,-0.04935944007279363
11856.0,-0.04761278536539098
11864.0,-0.04577784455018129
11872.0,-0.04795629056103319
11880.0,-0.05247125660666038
11888.0,-0.05221151350963572
11896.0,-0.048911638408956924
11904.0,-0.04647952235364408
11912.0,-0.04545875902437201
11920.0,-0.04718035190938495
11928.0,-0.05649784934392898
11936.0,-0.06528588013247695
11944.0,-0.060957103323799826
11952.0,-0.04726342087398448
11960.0,-0.03388318122416571
11968.0,-0.030663610065288387
11976.0,-0.034910839406845466
11984.0,-0.037955645720882225
11992.0,-0.03816292122191795
12000.0,-0.03802089157807686
12008.0,-0.03824514560027468
12016.0,-0.043082195355286124
12024.0,-0.04420783003001861
12032.0,-0.038056651493030655
12040.0,-0.029423361288230077
12048.0,-0.026522715253003596
12056.0,-0.03007430148774585
12064.0,-0.03339843734573297
12072.0,-0.03285032661383322
12080.0,-0.03229525558033147
12088.0,-0.03425043902233283
12096.0,-0.03717507517246409
12104.0,-0.03887841335023267
12112.0,-0.03965390394558212
12120.0,-0.038829592565368526
12128.0,-0.036792381996076394
12136.0,-0.03380498392711416
12144.0,-0.035076928570500376
12152.0,-0.036353565758873246
12160.0,-0.035363180930971426
12168.0,-0.03679455883709362
12176.0,-0.040781681552594984
12184.0,-0.0424952014327445
12192.0,-0.04019366760898867
12200.0,-0.03772607350664604
12208.0,-0.0335911132263308
12216.0,-0.0339386248331519
12224.0,-0.039485847777803305
12232.0,-0.043214740838634844
12240.0,-0.04406236331842572
12248.0,-0.04269360137205806
12256.0,-0.03893379766922121
12264.0,-0.0353209565600181
12272.0,-0.03680091451700189
12280.0,-0.03661992937305224
12288.0,-0.03502469022616057
12296.0,-0.0438549302295004
12304.0,-0.07081738986321902
12312.0,-0.07736853182561111
12320.0,0.06293819396137405
12328.0,0.4858941828590396
12336.0,0.9829496148182958
12344.0,0.9781244594540539
12352.0,0.4688684701740312
12360.0,0.05489513822566808
12368.0,-0.07300083682266707
12376.0,-0.06865548645771165
12384.0,-0.046613998194656614
12392.0,-0.036152610943557734
12400.0,-0.031631662744790554
12408.0,-0.03347675250944516
12416.0,-0.03878289016454711
12424.0,-0.03985162381333513
12432.0,-0.03636039500872938
12440.0,-0.03545587956024255
12448.0,-0.03913134780722228
12456.0,-0.04336942179448738
12464.0,-0.04193207261288931
12472.0,-0.03908623686932013
12480.0,-0.040476790832835174
12488.0,-0.04542987621494619
12496.0,-0.046474526641630175
12504.0,-0.04083890288722449
12512.0,-0.037224332983112056
12520.0,-0.03781855049236297
12528.0,-0.03926669883298781
12536.0,-0.04424340444788114
12544.0,-0.04856212104714054
12552.0,-0.04830857960378279
12560.0,-0.04763172958019926
12568.0,-0.04917949192057488
12576.0,-0.04652890778528477
12584.0,-0.04654402739241228
12592.0,-0.048508429097188326
12600.0,-0.047032455340013046
12608.0,-0.04220830911423136
12616.0,-0.03833147969565849
12624.0,-0.035549071096014684
12632.0,-0.034098517857506706
12640.0,-0.03220526092226879
12648.0,-0.030243487653445467
12656.0,-0.031131850202143197
12664.0,-0.0355770078138885
12672.0,-0.038926866315823906
12680.0,-0.04140032476950997
12688.0,-0.044805912424099106
12696.0,-0.04560991423383143
12704.0,-0.04105828748740344
12712.0,-0.03675583720199517
12720.0,-0.03614711900935751
12728.0,-0.037375939657225375
12736.0,-0.036853312254834854
12744.0,-0.035971297121435944
12752.0,-0.038113955408646844
12760.0,-0.04141007284656335
12768.0,-0.04267991598672123
12776.0,-0.041041418806296255
12784.0,-0.038923309943542574
12792.0,-0.03594503813868801
12800.0,-0.03286185584283107
12808.0,-0.03364974778595247
12816.0,-0.034663173970922195
12824.0,-0.034380430277760755
12832.0,-0.036632000248632876
12840.0,-0.04062711224382859
12848.0,-0.04106665522423712
12856.0,-0.03983537958805632
12864.0,-0.03997835464685503
12872.0,-0.04254995985189608
12880.0,-0.04559082207223216
12888.0,-0.044066209267553454
12896.0,-0.042559261205734056
12904.0,-0.04457157343180209
12912.0,-0.04604376171341528
12920.0,-0.04814182565884639
12928.0,-0.05196241680499988
12936.0,-0.047129398474064735
12944.0,-0.038699334173482966
12952.0,-0.034164319786620954
12960.0,-0.03759191147477979
12968.0,-0.05382711258265139
12976.0,-0.08202231092878311
12984.0,-0.06623015149274379
12992.0,0.14733774159702015
13000.0,0.6705885545961924
13008.0,1.1280391148319078
13016.0,0.9956954498995934
13024.0,0.4365228546157205
13032.0,0.03934945500506362
13040.0,-0.07308222839711583
13048.0,-0.06803565593872712
13056.0,-0.0491636328008063
13064.0,-0.03693825328497241
13072.0,-0.030442950867388126
13080.0,-0.027855480782072846
13088.0,-0.02840454590391646
13096.0,-0.03104286882939066
13104.0,-0.0332378964808956
13112.0,-0.03447194475423572
13120.0,-0.03411678212860057
13128.0,-0.035010668456003195
13136.0,-0.03637085891135028
13144.0,-0.03632306864138937
13152.0,-0.03510092043915364
13160.0,-0.034749045862258104
13168.0,-0.036007528215439955
13176.0,-0.03369756466922404
13184.0,-0.02931217644411515
13192.0,-0.030583494814051378
13200.0,-0.0355982234513757
13208.0,-0.036215111677859034
13216.0,-0.03536121487184043
13224.0,-0.03841611829399736
13232.0,-0.044549153442775026
13240.0,-0.04791558382214933
13248.0,-0.04268263389692627
13256.0,-0.03718959842673599
13264.0,-0.034916335820214826
13272.0,-0.03128615357195824
13280.0,-0.030287682482857646
13288.0,-0.03043129392361017
13296.0,-0.030032028479489815
13304.0,-0.028817358733165245
13312.0,-0.027444926076337826
13320.0,-0.02662943275648684
13328.0,-0.02595226161961876
13336.0,-0.028246321715598932
13344.0,-0.030970367564158444
13352.0,-0.0316406454014464
13360.0,-0.033481395553413666
13368.0,-0.037534475469899686
13376.0,-0.03635667155537729
13384.0,-0.03301165682678989
13392.0,-0.02933888931630924
13400.0,-0.02416682801551919
13408.0,-0.023858071726428787
13416.0,-0.025955079862970114
13424.0,-0.025195930105451556
13432.0,-0.02416963255872605
13440.0,-0.023737308735160407
13448.0,-0.026020127970997235
13456.0,-0.030498744713488082
13464.0,-0.029969120904840628
13472.0,-0.022406947335345047
13480.0,-0.016857727292068275
13488.0,-0.019003968111311657
13496.0,-0.02485033788109927
13504.0,-0.029908055049334713
13512.0,-0.03285786578711318
13520.0,-0.03442212652408745
13528.0,-0.03427448582505485
13536.0,-0.031192094897877283
13544.0,-0.02963809764414866
13552.0,-0.02717525223436347
13560.0,-0.024751213978123805
13568.0,-0.026775020319671876
13576.0,-0.033006446685874775
13584.0,-0.03835278715282716
13592.0,-0.034965009364259635
13600.0,-0.02792801104477354
13608.0,-0.02346528264900418
13616.0,-0.024021160786027666
13624.0,-0.02817823002334014
13632.0,-0.029895752704786185
13640.0,-0.028480911696418622
13648.0,-0.029639596453884563
13656.0,-0.03281695642735736
13664.0,-0.030728557552473498
13672.0,-0.025188934187828887
13680.0,-0.0201636092067743
13688.0,-0.019979368506348478
13696.0,-0.026744286984802388
13704.0,-0.03484996269264432
13712.0,-0.03881952061917697
13720.0,-0.03406485760596891
13728.0,-0.029475316695663466
13736.0,-0.028442928436217627
13744.0,-0.026928337779686253
13752.0,-0.027914256651809816
13760.0,-0.03170967945220958
13768.0,-0.032524403410725246
13776.0,-0.0314728126644762
13784.0,-0.029144184748013363
13792.0,-0.02931739956150452
13800.0,-0.028054055084825988
13808.0,-0.022980528122955646
13816.0,-0.01820723076473211
13824.0,-0.015589851061479802
13832.0,-0.018220411479166622
13840.0,-0.03768497455039845
13848.0,-0.07163174712268068
13856.0,-0.06385461782442677
13864.0,0.13057366011222485
13872.0,0.639879171059204
13880.0,1.110917595626615
13888.0,0.9984831142476797
13896.0,0.44391430034535373
13904.0,0.03721146626875271
13912.0,-0.07928862064692309
13920.0,-0.06846415317672334
13928.0,-0.04071272601215305
13936.0,-0.028139239270861042
13944.0,-0.028356220136037526
13952.0,-0.03032861099182236
13960.0,-0.03348897571050543
13968.0,-0.03679084604487353
13976.0,-0.037049683653442016
13984.0,-0.03219432330935118
13992.0,-0.027931429683587857
14000.0,-0.03028850637569698
14008.0,-0.03518899268550542
14016.0,-0.03836172627067269
14024.0,-0.03763365226842947
14032.0,-0.03524514838511782
14040.0,-0.032253648909986846
14048.0,-0.03149537810460299
14056.0,-0.034339699911727375
14064.0,-0.03494946404052576
14072.0,-0.03277104019496025
14080.0,-0.03481662573203056
14088.0,-0.039629289854322215
14096.0,-0.04403580568135259
14104.0,-0.044227954104694996
14112.0,-0.039437073597053715
14120.0,-0.03452080883166818
14128.0,-0.0321553232702153
14136.0,-0.03174421161231695
14144.0,-0.03111070431749451
14152.0,-0.028427922216674825
14160.0,-0.024540561791144857
14168.0,-0.024144118969462926
14176.0,-0.026157722228782137
14184.0,-0.024322712248454965
14192.0,-0.02080477901607805
14200.0,-0.020325176843392516
14208.0,-0.023310245912599063
14216.0,-0.026380352544404847
14224.0,-0.024954144860161006
14232.0,-0.021576837238016438
14240.0,-0.02072512906568126
14248.0,-0.020975618160011734
14256.0,-0.023908419518137842
14264.0,-0.02758654344265788
14272.0,-0.029859264106634798
14280.0,-0.02943976873690758
14288.0,-0.026398970273685568
14296.0,-0.02476742746071838
14304.0,-0.02850509724924786
14312.0,-0.03077204290638595
14320.0,-0.02727428180247037
14328.0,-0.025332731623294493
14336.0,-0.025343024584356482
14344.0,-0.023566673912714477
14352.0,-0.024736282954659326
14360.0,-0.031117617878519417
14368.0,-0.03440214285688783
14376.0,-0.02945727842600869
14384.0,-0.02503235191584722
14392.0,-0.02461869120028824
14400.0,-0.027724700503003373
14408.0,-0.03162199928296867
14416.0,-0.031763766007520275
14424.0,-0.03018036428150998
14432.0,-0.027782542362508458
14440.0,-0.022618737065481342
14448.0,-0.019239695233218904
14456.0,-0.020863460234089026
14464.0,-0.024370417400603146
14472.0,-0.02413457534658507
14480.0,-0.022213683528914157
14488.0,-0.023455554449271835
14496.0,-0.027030172151139273
14504.0,-0.02641428094249764
14512.0,-0.023389365624915188
14520.0,-0.02241157896233357
14528.0,-0.022576226763281512
14536.0,-0.022008157444861533
14544.0,-0.02334713239462478
14552.0,-0.025493715844847595
14560.0,-0.02254299223646435
14568.0,-0.018935796293955986
14576.0,-0.020110354046416666
14584.0,-0.020774789721689276
14592.0,-0.017639133974017573
14600.0,-0.01611473637914012
14608.0,-0.01808219447323466
14616.0,-0.022294680227033292
14624.0,-0.025271081326076424
14632.0,-0.02674456882052932
14640.0,-0.025363155254378433
14648.0,-0.022789787423240344
14656.0,-0.021526601259954484
14664.0,-0.021109745809368523
14672.0,-0.02053224314831366
14680.0,-0.019144763677268663
14688.0,-0.01945883827598029
14696.0,-0.021216432071144018
14704.0,-0.02315080654143354
14712.0,-0.0283461786180452
14720.0,-0.0334260881461203
14728.0,-0.0328210004647386
14736.0,-0.03105534533670758
14744.0,-0.03144427237461574
14752.0,-0.03616963123378288
14760.0,-0.03970589195289324
14768.0,-0.032596643491399534
14776.0,-0.025537711251679425
14784.0,-0.021616782875919525
14792.0,-0.02113161550002447
14800.0,-0.023048310769802564
14808.0,-0.024596795391642966
14816.0,-0.024238814494444177
14824.0,-0.025622775821380343
14832.0,-0.036907384286295135
14840.0,-0.06234389555158686
14848.0,-0.07990888160753179
14856.0,-0.0028204440741717365
14864.0,0.33728445213257346
14872.0,0.9025079705787412
14880.0,1.1373863957904384
14888.0,0.7593114455773113
14896.0,0.21851506072659513
14904.0,-0.036727223409537546
14912.0,-0.07407073974160294
14920.0,-0.05031617859076227
14928.0,-0.03169949294831703
14936.0,-0.02313011245321188
14944.0,-0.02098071488464554
14952.0,-0.02123852821773539
14960.0,-0.021804232895082272
14968.0,-0.022810924916372995
14976.0,-0.02488186739004941
14984.0,-0.026401481265860973
14992.0,-0.025914852146008836
15000.0,-0.024066309314518777
15008.0,-0.02435515239535348
15016.0,-0.029023616746746486
15024.0,-0.03299252092134744
15032.0,-0.035797828273865004
15040.0,-0.03951312788942268
15048.0,-0.04101969203368851
15056.0,-0.04199090507688533
15064.0,-0.03924478294022606
15072.0,-0.040128809878258315
15080.0,-0.04615695588526657
15088.0,-0.045126765562273026
15096.0,-0.04190962515212976
15104.0,-0.04148133965409708
15112.0,-0.04468581155640434
15120.0,-0.043140129655354346
15128.0,-0.035299257599496
15136.0,-0.0289976245587306
15144.0,-0.02664614540693152
15152.0,-0.02527344762868134
15160.0,-0.022046405414488168
15168.0,-0.019491909519589286
15176.0,-0.018493131576233977
15184.0,-0.018420187278806413
15192.0,-0.019680452592281798
15200.0,-0.023372809619248154
15208.0,-0.027272199315455704
15216.0,-0.025819458007448403
15224.0,-0.021240248303029785
15232.0,-0.018376985561617695
15240.0,-0.01753571272296552
15248.0,-0.0178205127212305
15256.0,-0.0196100792097503
15264.0,-0.023337086126785776
15272.0,-0.025532024909716653
15280.0,-0.026037810726996236
15288.0,-0.02656209358866569
15296.0,-0.023512804050114487
15304.0,-0.020670988628121188
15312.0,-0.022041664857200945
15320.0,-0.023573867827558527
15328.0,-0.020642302880921504
15336.0,-0.01866270552142299
15344.0,-0.0198137774910735
15352.0,-0.021655160078970368
15360.0,-0.021685543304114277
15368.0,-0.02023042672915066
15376.0,-0.020075689137292442
15384.0,-0.02300523073442193
15392.0,-0.025896337647767668
15400.0,-0.025542979235092675
15408.0,-0.022247336426459163
15416.0,-0.019144903046032648
15424.0,-0.019292902570999713
15432.0,-0.021584147770802052
15440.0,-0.023559887836529632
15448.0,-0.024017183358686838
15456.0,-0.02053205375078679
15464.0,-0.019027171150689765
15472.0,-0.021971170832324263
15480.0,-0.026708884204324164
15488.0,-0.031058578863759012
15496.0,-0.03359929529186927
15504.0,-0.029866767976123833
15512.0,-0.02237903092506546
15520.0,-0.018858548214310256
15528.0,-0.022981436431515748
15536.0,-0.03176722719232744
15544.0,-0.034522811004845826
15552.0,-0.032502392614216356
15560.0,-0.031238487113992703
15568.0,-0.030108352305443755
15576.0,-0.03150710197132989
15584.0,-0.030298457589373586
15592.0,-0.02459841072569609
15600.0,-0.022222650205775376
15608.0,-0.02781858698439703
15616.0,-0.034132330821598146
15624.0,-0.03141404647337507
15632.0,-0.026092845789883155
15640.0,-0.02309417213462134
15648.0,-0.021488202003276703
15656.0,-0.021694103242609772
15664.0,-0.02586506977280267
15672.0,-0.02943705782602193
15680.0,-0.02886713065621857
15688.0,-0.027841436858218962
15696.0,-0.029456989008026183
15704.0,-0.03561950829758587
15712.0,-0.03525269282969283
15720.0,-0.028515291497084518
15728.0,-0.023843887017739623
15736.0,-0.021304693536191355
15744.0,-0.02022232195059602
15752.0,-0.02378867467543025
15760.0,-0.03265876074987378
15768.0,-0.040157977258024766
15776.0,-0.04404975441284302
15784.0,-0.061791816023717354
15792.0,-0.07495292937520584
15800.0,0.020174508087347498
15808.0,0.3841398147435587
15816.0,0.9124712081581751
15824.0,1.0121131633649132
15832.0,0.5479873132901895
15840.0,0.10046719909732851
15848.0,-0.056391691898901135
15856.0,-0.05824488589487502
15864.0,-0.03314624804557143
15872.0,-0.021736219897802257
15880.0,-0.02093646080594217
15888.0,-0.022227050888668547
15896.0,-0.023732745204623876
15904.0,-0.02508037997429367
15912.0,-0.025596055370844337
15920.0,-0.022210553497266403
15928.0,-0.019222484148274342
15936.0,-0.01813410033641867
15944.0,-0.01804215494304827
15952.0,-0.018565115144672593
15960.0,-0.019900875520057724
15968.0,-0.021296381764141156
15976.0,-0.024259131201101045
15984.0,-0.031387789163325366
15992.0,-0.033664718083525474
16000.0,-0.028608855273111466
16008.0,-0.02779391485394128
16016.0,-0.031791665130702335
16024.0,-0.031195073435245822
16032.0,-0.03178524978293353
16040.0,-0.03751652069038157
16048.0,-0.041202699027973216
16056.0,-0.04258984283517603
16064.0,-0.04020706050447876
16072.0,-0.032999356861199154
16080.0,-0.027085213497198026
16088.0,-0.026240983084699514
16096.0,-0.028642527994401895
16104.0,-0.02764405121074749
16112.0,-0.022923126006839236
16120.0,-0.021473230537511264
16128.0,-0.01901135206328475
16136.0,-0.01672744278823726
16144.0,-0.016945943945809658
16152.0,-0.01663930354680612
16160.0,-0.016622908797451725
16168.0,-0.018869704353122355
16176.0,-0.021022280364649405
16184.0,-0.020499572426738385
16192.0,-0.01735781993818288
16200.0,-0.01640206877198787
16208.0,-0.01569242907173478
16216.0,-0.0155447366140243
16224.0,-0.01787054477379293
16232.0,-0.020667094200095073
16240.0,-0.02281611762772483
16248.0,-0.023203076312715034
16256.0,-0.02240566413725036
16264.0,-0.02374220085829886
16272.0,-0.024759487993225283
16280.0,-0.023578735785572565
16288.0,-0.023948874163436575
16296.0,-0.02669453738139439
16304.0,-0.025980898024184164
16312.0,-0.0227276895847915
16320.0,-0.019293106617221344
16328.0,-0.01700131991365628
16336.0,-0.019986218344351044
16344.0,-0.02443040097218355
16352.0,-0.020320238342275046
16360.0,-0.01688757304921493
16368.0,-0.020951695164160324
16376.0,-0.027863905051571727
16384.0,-0.034985699972094
16392.0,-0.034971795799432624
16400.0,-0.027138810056043527
16408.0,-0.02131441009136093
16416.0,-0.018996423023882495
16424.0,-0.01808931674251342
16432.0,-0.01720236531946446
16440.0,-0.017174244878219155
16448.0,-0.019814651256192445
16456.0,-0.022196663351236316
16464.0,-0.02300548604595653
16472.0,-0.02218766156008554
16480.0,-0.019079385574587934
16488.0,-0.014445069262411571
16496.0,-0.01161396032258424
16504.0,-0.01203275665049069
16512.0,-0.01467385818239878
16520.0,-0.019199223958613856
16528.0,-0.022548410017358828
16536.0,-0.025621864482546736
16544.0,-0.030114809530718243
16552.0,-0.034075158962635355
16560.0,-0.0325236788229537
16568.0,-0.025893905390457952
16576.0,-0.021100285840967146
16584.0,-0.021438987337572706
16592.0,-0.020173944764988315
16600.0,-0.017209021079361148
16608.0,-0.018345896105598326
16616.0,-0.022259411797555126
16624.0,-0.024589245231082194
16632.0,-0.024391531045636013
16640.0,-0.0244588190179223
16648.0,-0.024007361308227212
16656.0,-0.022499417442991818
16664.0,-0.020819418843959592
16672.0,-0.020130255211162407
16680.0,-0.021577094841349398
16688.0,-0.02398274187818477
16696.0,-0.025517969763982712
16704.0,-0.025110036179046818
16712.0,-0.02420626926759464
16720.0,-0.022846338747757548
16728.0,-0.02285128444591331
16736.0,-0.02986523327953814
16744.0,-0.04981349750176534
16752.0,-0.06587070481608036
16760.0,0.021538455826280098
16768.0,0.3788001917382729
16776.0,0.8951296468325567
16784.0,0.9723013571719399
16792.0,0.5062114350368397
16800.0,0.08439709023659983
16808.0,-0.062230943997564264
16816.0,-0.06911637443879734
16824.0,-0.044030569721512244
16832.0,-0.02814260839060584
16840.0,-0.024716120095473432
16848.0,-0.027085688102705497
16856.0,-0.02703883574726134
16864.0,-0.021620569690067645
16872.0,-0.01861217070926481
16880.0,-0.02027375035904517
16888.0,-0.02544987740505441
16896.0,-0.03078690828642728
16904.0,-0.029061621353373618
16912.0,-0.028265335424472723
16920.0,-0.029052441518418758
16928.0,-0.02910637102812224
16936.0,-0.029575771480386155
16944.0,-0.03364535175523165
16952.0,-0.035979052142392255
16960.0,-0.036128075870498454
16968.0,-0.034343707220248064
16976.0,-0.032451123721433765
16984.0,-0.0331046287914401
16992.0,-0.036041204287265635
17000.0,-0.038064932691979095
17008.0,-0.03632747598299958
17016.0,-0.031102542664727124
17024.0,-0.02965770838368961
17032.0,-0.02975630906299264
17040.0,-0.028045397358762353
17048.0,-0.024880071497657398
17056.0,-0.02302737443431356
17064.0,-0.023879548056839384
17072.0,-0.026193066414875864
17080.0,-0.02770398914824272
17088.0,-0.026326349116945563
17096.0,-0.02144281458935873
17104.0,-0.018242435430315875
17112.0,-0.019905074571145247
17120.0,-0.02649646105225968
17128.0,-0.03187527817562668
17136.0,-0.029281984391647115
17144.0,-0.021685960632159863
17152.0,-0.01524718111670197
17160.0,-0.013812506476420166
17168.0,-0.01501292779223254
17176.0,-0.016608825999432274
17184.0,-0.019302653907164655
17192.0,-0.023112614268121258
17200.0,-0.02611212088572724
17208.0,-0.026530417262511444
17216.0,-0.02681844392030802
17224.0,-0.024868767089319503
17232.0,-0.020162238181755433
17240.0,-0.018046921982706163
17248.0,-0.01892215445600503
17256.0,-0.018529273222667335
17264.0,-0.017070727815237715
17272.0,-0.015636026407288436
17280.0,-0.015881872537166136
17288.0,-0.020789003547614468
17296.0,-0.025028603134207107
17304.0,-0.027140042132142626
17312.0,-0.02774585990786991
17320.0,-0.024999059526648312
17328.0,-0.02188472547849614
17336.0,-0.021546658495620714
17344.0,-0.020893272847470747
17352.0,-0.019600016063365745
17360.0,-0.020787195978087494
17368.0,-0.023975131098437373
17376.0,-0.026582469725257258
17384.0,-0.025889533852081197
17392.0,-0.025026584153503114
17400.0,-0.025229493307777122
17408.0,-0.02460020601453665
17416.0,-0.022128427616319994
17424.0,-0.02031257624831158
17432.0,-0.021211409183709295
17440.0,-0.023849044921459287
17448.0,-0.02597895110479753
17456.0,-0.025730246895948092
17464.0,-0.02581855743908105
17472.0,-0.026711885741978185
17480.0,-0.028361225531292562
17488.0,-0.029830543804033917
17496.0,-0.03075542851810778
17504.0,-0.033079022562896666
17512.0,-0.03348366071767946
17520.0,-0.028932673917855364
17528.0,-0.025659054317152884
17536.0,-0.026247806968254732
17544.0,-0.02766071208898286
17552.0,-0.028901106345590392
17560.0,-0.0296119854334784
17568.0,-0.03141560416889694
17576.0,-0.03213084243257224
17584.0,-0.031169099822353902
17592.0,-0.03074000820545537
17600.0,-0.0320828559024406
17608.0,-0.034216632643771554
17616.0,-0.0353326067745332
17624.0,-0.032911665179170664
17632.0,-0.028362342656974737
17640.0,-0.027196045661544845
17648.0,-0.028494947620715687
17656.0,-0.027331209959025507
17664.0,-0.024102818282351265
17672.0,-0.023404124863806244
17680.0,-0.024135634053472015
17688.0,-0.03499143171698908
17696.0,-0.05834363509037825
17704.0,-0.06382628870928987
17712.0,0.06481139626290935
17720.0,0.4888280048095886
17728.0,1.011064852541484
17736.0,1.0354835304567707
17744.0,0.5364050277297578
17752.0,0.09093802526723568
17760.0,-0.05988161426663825
17768.0,-0.0616145214527154
17776.0,-0.04038610767380257
17784.0,-0.030344084326690106
17792.0,-0.02814741184571777
17800.0,-0.02952625304668631
17808.0,-0.0299036596133031
17816.0,-0.028406127952252287
17824.0,-0.024226194018183687
17832.0,-0.022842147745984545
17840.0,-0.026926645905883156
17848.0,-0.03074358212674895
17856.0,-0.030906829656117917
17864.0,-0.03004655996839991
17872.0,-0.027526531063337335
17880.0,-0.0229142405838617
17888.0,-0.021238772908643674
17896.0,-0.02252330112304019
17904.0,-0.023708686754312838
17912.0,-0.0256853446377435
17920.0,-0.029702035208141755
17928.0,-0.035245950604632065
17936.0,-0.038967834421876464
17944.0,-0.039981331310059626
17952.0,-0.043020705852406076
17960.0,-0.04360093447088242
17968.0,-0.036878043288350766
17976.0,-0.031877003366077766
17984.0,-0.03251024065759141
17992.0,-0.03386895072523459
18000.0,-0.03191344823725704
18008.0,-0.028055170353766805
18016.0,-0.02751416569821618
18024.0,-0.02776431882128513
18032.0,-0.026339313586744097
18040.0,-0.024909082458915835
18048.0,-0.02280519131647768
18056.0,-0.02194460287991906
18064.0,-0.02127303678420122
18072.0,-0.01906107527214308
18080.0,-0.017107256299675022
18088.0,-0.017616667253765626
18096.0,-0.02149555616788164
18104.0,-0.02214717208630386
18112.0,-0.020742938143898892
18120.0,-0.02348856806341567
18128.0,-0.02392845654223518
18136.0,-0.02383470370289603
18144.0,-0.025545634416662782
18152.0,-0.024493731763061244
18160.0,-0.021978588410288567
18168.0,-0.019821030970294914
18176.0,-0.018767961120423626
18184.0,-0.018744936376891008
18192.0,-0.020456562259403715
18200.0,-0.021501906325343434
18208.0,-0.02079687279101795
18216.0,-0.019907921514459734
18224.0,-0.02023552313379146
18232.0,-0.01893975990649154
18240.0,-0.017949717956056318
18248.0,-0.02042562365545853
18256.0,-0.025701377169306327
18264.0,-0.03024924250362338
18272.0,-0.029532805058298216
18280.0,-0.02766233132539578
18288.0,-0.02696753040949809
18296.0,-0.02713650970991405
18304.0,-0.027212519905170984
18312.0,-0.025699380388440263
18320.0,-0.021242054595616622
18328.0,-0.016853182635917303
18336.0,-0.017418700666948353
18344.0,-0.018647867144933602
18352.0,-0.018526545102450054
18360.0,-0.019939301344101757
18368.0,-0.02427634375121281
18376.0,-0.026344253654454114
18384.0,-0.026330232562200302
18392.0,-0.02922599962818369
18400.0,-0.030891494382766005
18408.0,-0.026974340770159064
18416.0,-0.023945491680337508
18424.0,-0.022959264533185107
18432.0,-0.022540977947293046
18440.0,-0.02265502994952525
18448.0,-0.02349365055044381
18456.0,-0.02460842505373391
18464.0,-0.02493230819566523
18472.0,-0.02557542521848041
18480.0,-0.02657122318514262
18488.0,-0.025737092457577715
18496.0,-0.024279432852947803
18504.0,-0.022298024675032523
18512.0,-0.02370929921303114
18520.0,-0.026822481261050832
18528.0,-0.027180017837846744
18536.0,-0.024241369822350214
18544.0,-0.021891040823075206
18552.0,-0.022069727131939238
18560.0,-0.020846253333554752
18568.0,-0.02078502985575644
18576.0,-0.02075275164907287
18584.0,-0.02054532444896172
18592.0,-0.027986518568458126
18600.0,-0.0492241747157608
18608.0,-0.060269746581840374
18616.0,0.02871815196582487
18624.0,0.3633720828933044
18632.0,0.8311740703463237
18640.0,0.8456733271564976
18648.0,0.3923026146313833
18656.0,0.04878563311591926
18664.0,-0.049526685780068
18672.0,-0.044297990634112744
18680.0,-0.030598030744472843
18688.0,-0.02511709356303107
18696.0,-0.02172920540436989
18704.0,-0.019309534081443314
18712.0,-0.017778949596895993
18720.0,-0.016336633454179888
18728.0,-0.016941624139690647
18736.0,-0.02207480135649471
18744.0,-0.028556631138514147
18752.0,-0.02878616127359772
18760.0,-0.02909398879600677
18768.0,-0.032669032101025515
18776.0,-0.0318162077458478
18784.0,-0.027974618252916895
18792.0,-0.029611706158482586
18800.0,-0.0317420807511577
18808.0,-0.03228896722187125
18816.0,-0.031379878957603156
18824.0,-0.028271391293449875
18832.0,-0.02476275070440405
18840.0,-0.02360536285963689
18848.0,-0.030322179998109215
18856.0,-0.035518819708080206
18864.0,-0.033013958276073764
18872.0,-0.031002565506962523
18880.0,-0.02858696174644842
18888.0,-0.030424058832641158
18896.0,-0.0370111602246325
18904.0,-0.037257159239372915
18912.0,-0.031166878989215233
18920.0,-0.022585087745065246
18928.0,-0.01745879878512776
18936.0,-0.017053361616497946
18944.0,-0.019060941749786404
18952.0,-0.019610640963899136
18960.0,-0.017144197072177965
18968.0,-0.015465208890899198
18976.0,-0.018330910824867996
18984.0,-0.01980312124239368
18992.0,-0.01963074480633444
19000.0,-0.020462681368386648
19008.0,-0.021645175486361627
19016.0,-0.02265925815627339
19024.0,-0.022449200006852625
19032.0,-0.02037234544333279
19040.0,-0.02117410283516585
19048.0,-0.024538143010956057
19056.0,-0.027279654619750973
19064.0,-0.027060463988863834
19072.0,-0.02512374183414306
19080.0,-0.023014344153173626
19088.0,-0.019206073169813417
19096.0,-0.017572294608280064
19104.0,-0.019854557223376108
19112.0,-0.025310828856384773
19120.0,-0.027736288257335394
19128.0,-0.026293458194323164
19136.0,-0.02277250869106218
19144.0,-0.022750436340792626
19152.0,-0.027280078000656797
19160.0,-0.03401984809764247
19168.0,-0.03736195060322813
19176.0,-0.03536326650378473
19184.0,-0.0332822777703598
19192.0,-0.03183606516983145
19200.0,-0.02795974067930763
19208.0,-0.023324415425159603
19216.0,-0.023640014341619168
19224.0,-0.024510894834701327
19232.0,-0.023518403283280698
19240.0,-0.02452140873621239
19248.0,-0.02713110321164612
19256.0,-0.028424544693588828
19264.0,-0.029243511681783855
19272.0,-0.02772173757395862
19280.0,-0.024954142409143818
19288.0,-0.023553947335504068
19296.0,-0.02676617214852644
19304.0,-0.03514971148982497
19312.0,-0.04239270366564709
19320.0,-0.04110142190367876
19328.0,-0.03327839708692338
19336.0,-0.029268842395006548
19344.0,-0.027657058056752927
19352.0,-0.025434641745816833
19360.0,-0.02859694766272909
19368.0,-0.03831324834372771
19376.0,-0.044878446973459905
19384.0,-0.0417543505248131
19392.0,-0.03617200099444556
19400.0,-0.03405389211211931
19408.0,-0.031203059133682855
19416.0,-0.026408336658088213
19424.0,-0.024834294538871402
19432.0,-0.027864136014570624
19440.0,-0.03124155105938044
19448.0,-0.03908223940459124
19456.0,-0.06162522092850988
19464.0,-0.07197575457246867
19472.0,0.045526540173438906
19480.0,0.4513856980218831
19488.0,0.9736831325578845
19496.0,1.0173431627911846
19504.0,0.5243345256042381
19512.0,0.08371780467640562
19520.0,-0.06439022554456243
19528.0,-0.06410716981720846
19536.0,-0.03794072628639039
19544.0,-0.02454092413904373
19552.0,-0.02218060101345889
19560.0,-0.02249464431871712
19568.0,-0.025043406132634685
19576.0,-0.03044709135015124
19584.0,-0.036488876881237295
19592.0,-0.035891038106027964
19600.0,-0.030627531513270266
19608.0,-0.024483459366267207
19616.0,-0.023451086781846
19624.0,-0.026332897928755306
19632.0,-0.025518614937682673
19640.0,-0.024405365857474583
19648.0,-0.02561778871393408
19656.0,-0.02790652705839601
19664.0,-0.03194728375000015
19672.0,-0.03603398404078247
19680.0,-0.039078473661965485
19688.0,-0.04181874301720647
19696.0,-0.04051656298050329
19704.0,-0.041545456737336846
19712.0,-0.046685252618095315
19720.0,-0.047488300750661384
19728.0,-0.04845357603861624
19736.0,-0.05081156877281051
19744.0,-0.0469833981483175
19752.0,-0.03564349085220758
19760.0,-0.026841175929598848
19768.0,-0.02658726308855415
19776.0,-0.02901213800770385
19784.0,-0.028429482051197393
19792.0,-0.023005313208251704
19800.0,-0.01880308116456589
19808.0,-0.01893084902409078
19816.0,-0.020584061959912723
19824.0,-0.023394034341674953
19832.0,-0.027317605024149247
19840.0,-0.027063767449674894
19848.0,-0.023220377637748466
19856.0,-0.022475940675563216
19864.0,-0.02387398128139784
19872.0,-0.025176593609884296
19880.0,-0.026005739967092194
19888.0,-0.02560272836990184
19896.0,-0.022306840466751823
19904.0,-0.02174820080146566
19912.0,-0.025262175230821058
19920.0,-0.024776743945949614
19928.0,-0.020222504158684616
19936.0,-0.01886495427904758
19944.0,-0.02179378914365127
19952.0,-0.024915276491702665
19960.0,-0.025659707900755814
19968.0,-0.027197274352710694
19976.0,-0.02942213392206501
19984.0,-0.026877415896444264
19992.0,-0.02508114166227979
20000.0,-0.0282206769796128
20008.0,-0.033033422568204504
20016.0,-0.033852642140478666
20024.0,-0.031957926698668246
20032.0,-0.02917410517577617
20040.0,-0.028360888288633406
20048.0,-0.029343286047683603
20056.0,-0.030515508396620254
20064.0,-0.030485847510228255
20072.0,-0.032116060875254045
20080.0,-0.03321136341495971
20088.0,-0.02913056855256873
20096.0,-0.025368691228573003
20104.0,-0.029762425236892688
20112.0,-0.035425062657372934
20120.0,-0.0329623304543812
20128.0,-0.03113591336153113
20136.0,-0.03512440430406567
20144.0,-0.0384832407461791
20152.0,-0.03930396804528269
20160.0,-0.03857943333762541
20168.0,-0.03772911483365915
20176.0,-0.036678541786564677
20184.0,-0.029827199664910514
20192.0,-0.023302775158015286
20200.0,-0.02479494976680644
20208.0,-0.031091485728981582
20216.0,-0.03341526280682239
20224.0,-0.032466475553944996
20232.0,-0.031945845957564126
20240.0,-0.037068056418240077
20248.0,-0.05328173546802047
20256.0,-0.07105497398542829
20264.0,-0.00773492418273741
20272.0,0.3033433348355679
20280.0,0.8366993057086146
20288.0,1.0425356682663316
20296.0,0.6436258637360069
20304.0,0.15364866189166596
20312.0,-0.04810397232268733
20320.0,-0.06782582866524271
20328.0,-0.047334281083707894
20336.0,-0.03474754440719561
20344.0,-0.031048956469056886
20352.0,-0.0314870441962875
20360.0,-0.03127748856419853
20368.0,-0.028661855644270644
20376.0,-0.024033711924457503
20384.0,-0.022888772842071522
20392.0,-0.02542610236275399
20400.0,-0.028164047176166208
20408.0,-0.029055401400802556
20416.0,-0.028858771659106833
20424.0,-0.03196699776383211
20432.0,-0.035577351664181495
20440.0,-0.03995293704629596
20448.0,-0.04572602566118042
20456.0,-0.04610747108933945
20464.0,-0.038468296498175215
20472.0,-0.032168137124922926
20480.0,-0.03455662475807869
20488.0,-0.0420330015384866
20496.0,-0.050913041128238364
20504.0,-0.05796063346659523
20512.0,-0.05762426268022535
20520.0,-0.04793200374271544
20528.0,-0.03671944255641818
20536.0,-0.03376888740000701
20544.0,-0.03541907501428732
20552.0,-0.03488816674555285
20560.0,-0.03238226687627122
20568.0,-0.02880351566250073
20576.0,-0.026882032394994305
20584.0,-0.028366141336645615
20592.0,-0.03234050897377637
20600.0,-0.03396727952528425
20608.0,-0.03314178906210862
20616.0,-0.030093697295012017
20624.0,-0.027676838619854535
20632.0,-0.030299777845621437
20640.0,-0.035693394260360195
20648.0,-0.0340159481846351
20656.0,-0.02500613377179261
20664.0,-0.02141969165331419
20672.0,-0.0244551762131333
20680.0,-0.027443091839721257
20688.0,-0.028367182328785556
20696.0,-0.030588564691931764
20704.0,-0.032539358274104306
20712.0,-0.031225226702761726
20720.0,-0.025701312048942975
20728.0,-0.023583498542973667
20736.0,-0.026763975971623954
20744.0,-0.028653541618279085
20752.0,-0.029760783847185765
20760.0,-0.030352749003101406
20768.0,-0.029651161379380907
20776.0,-0.03152715061983878
20784.0,-0.036355195691473816
20792.0,-0.03879536246452463
20800.0,-0.036339864518220584
20808.0,-0.03638563693028533
20816.0,-0.03869652817900477
20824.0,-0.03854880566767999
20832.0,-0.03434965564069552
20840.0,-0.029912484741709995
20848.0,-0.028732602361822106
20856.0,-0.029832523461488642
20864.0,-0.030913161231333846
20872.0,-0.028772849892127254
20880.0,-0.02573461888296791
20888.0,-0.026010209485775315
20896.0,-0.029584955916380083
20904.0,-0.03098740815657877
20912.0,-0.030739115129543956
20920.0,-0.03286601156502026
20928.0,-0.038348167301430355
20936.0,-0.04729156686684305
20944.0,-0.05584536807300006
20952.0,-0.05318763076610105
20960.0,-0.04502967437037299
20968.0,-0.040460920521848645
20976.0,-0.037345890307751366
20984.0,-0.032569245885544745
20992.0,-0.028464956527321495
21000.0,-0.027470024130508627
21008.0,-0.026491874556259558
21016.0,-0.028486078492551668
21024.0,-0.03880722719709281
21032.0,-0.06260493073899744
21040.0,-0.0724098717203403
21048.0,0.04100852144866631
21056.0,0.4413198333485256
21064.0,0.9834947553498976
21072.0,1.0813959750221211
21080.0,0.6198799251393688
21088.0,0.13468297230556073
21096.0,-0.052540402765623564
21104.0,-0.06537982029469773
21112.0,-0.044295494323439745
21120.0,-0.034152127845465466
21128.0,-0.031184825586057927
21136.0,-0.031420736042573054
21144.0,-0.0353815342735105
21152.0,-0.036561573780578595
21160.0,-0.032952297825290175
21168.0,-0.030179269874826893
21176.0,-0.029958511257023816
21184.0,-0.031762458212458246
21192.0,-0.03270527711647043
21200.0,-0.03073515600523224
21208.0,-0.02930233705675611
21216.0,-0.0318269675265006
21224.0,-0.036035960375737225
21232.0,-0.03808531689245143
21240.0,-0.03563545375907609
21248.0,-0.03271574183147702
21256.0,-0.031272671033010686
21264.0,-0.031940912309239254
21272.0,-0.034648816918714374
21280.0,-0.03662024355703032
21288.0,-0.035953608167955696
21296.0,-0.03355540504089215
21304.0,-0.037419993554450526
21312.0,-0.047969948371134497
21320.0,-0.0528419618671647
21328.0,-0.049510068285335745
21336.0,-0.03986039623375043
21344.0,-0.030691196373723948
21352.0,-0.024160543603043642
21360.0,-0.023193322761237062
21368.0,-0.025031111728685256
21376.0,-0.027299957173914414
21384.0,-0.028230896232462256
21392.0,-0.024185132729723505
21400.0,-0.019022175694542544
21408.0,-0.017995401344041977
21416.0,-0.018720906654898475
21424.0,-0.01945130027977557
21432.0,-0.019914886032972756
21440.0,-0.01919030935079621
21448.0,-0.020716792975108648
21456.0,-0.02710111955497742
21464.0,-0.029674331820964715
21472.0,-0.0253622292217614
21480.0,-0.022807995402446563
21488.0,-0.02206602822255133
21496.0,-0.023495698550599586
21504.0,-0.023788682176141624
21512.0,-0.024426259158731162
21520.0,-0.02775748517340018
21528.0,-0.029651706905685273
21536.0,-0.02749408499564563
21544.0,-0.023911902958559307
21552.0,-0.02401878448346082
21560.0,-0.026468598781310294
21568.0,-0.025400925434405065
21576.0,-0.020178453076046498
21584.0,-0.017097317556757887
21592.0,-0.019904086770406833
21600.0,-0.02397604081962959
21608.0,-0.024060493944742224
21616.0,-0.022799531594607778
21624.0,-0.025882442298524502
21632.0,-0.03046008754829196
21640.0,-0.02917903329563837
21648.0,-0.024169391793224554
21656.0,-0.020490895673673903
21664.0,-0.01822663137941252
21672.0,-0.01770361980734286
21680.0,-0.02169956334129872
21688.0,-0.025590526472451986
21696.0,-0.02829917603309237
21704.0,-0.029045982418235736
21712.0,-0.025683659995053596
21720.0,-0.024014294318881198
21728.0,-0.026800463808715702
21736.0,-0.03257513241169077
21744.0,-0.03432191882316541
21752.0,-0.030856854734071883
21760.0,-0.026331356784775436
21768.0,-0.02543976256050025
21776.0,-0.025406105970444688
21784.0,-0.023621402061524324
21792.0,-0.024842992927541836
21800.0,-0.028782514934754144
21808.0,-0.027247129493953446
21816.0,-0.02484771501271481
21824.0,-0.03504178852198158
21832.0,-0.05921143985472438
21840.0,-0.060845257137038325
21848.0,0.07078965745903283
21856.0,0.4577910763443988
21864.0,0.8583119742730971
21872.0,0.7194017085035718
21880.0,0.2578106821774459
21888.0,-0.004392950757178598
21896.0,-0.05972040590180651
21904.0,-0.0464989641984753
21912.0,-0.03103444337647583
21920.0,-0.024294886382051396
21928.0,-0.023842817746005968
21936.0,-0.02602175788705082
21944.0,-0.026050942648078012
21952.0,-0.02450182366561079
21960.0,-0.027003171050056538
21968.0,-0.03242540154177519
21976.0,-0.0333079383987273
21984.0,-0.03176180524952783
21992.0,-0.03125721038859287
22000.0,-0.034336098148904336
22008.0,-0.03378000029327569
22016.0,-0.0255747634876085
22024.0,-0.02244727150501573
22032.0,-0.026484534778492382
22040.0,-0.03005970544026692
22048.0,-0.02896764470722237
22056.0,-0.025704404242761117
22064.0,-0.024265984354719043
22072.0,-0.027295572951571558
22080.0,-0.03395042625910098
22088.0,-0.04093699495848691
22096.0,-0.04175669905671037
22104.0,-0.03780481203384061
22112.0,-0.03329889335258024
22120.0,-0.02714570433166427
22128.0,-0.02357876154108765
22136.0,-0.023743392562937827
22144.0,-0.023714201396727426
22152.0,-0.023025040602046392
22160.0,-0.022496493606877645
22168.0,-0.02063397885758403
22176.0,-0.02181168878881427
22184.0,-0.025496471486530142
22192.0,-0.025234031070488532
22200.0,-0.026058354900072304
22208.0,-0.026584399533035583
22216.0,-0.02668885571668575
22224.0,-0.024084217949038547
22232.0,-0.020454611409450096
22240.0,-0.02002910579996749
22248.0,-0.026109301034997822
22256.0,-0.030465618509740017
22264.0,-0.0293030824999459
22272.0,-0.029114905050715345
22280.0,-0.02757729695639501
22288.0,-0.024376734725110885
22296.0,-0.02344370132936412
22304.0,-0.026138414256985817
22312.0,-0.028832073062212967
22320.0,-0.030369020694237626
22328.0,-0.02952508256852698
22336.0,-0.028231578315795664
22344.0,-0.028853652402492633
22352.0,-0.029322976641176154
22360.0,-0.026900352069298108
22368.0,-0.024325192159883168
22376.0,-0.022249636933050054
22384.0,-0.02299633589068255
22392.0,-0.024583985401008496
22400.0,-0.026092072210368217
22408.0,-0.028038730983096078
22416.0,-0.028282849304762263
22424.0,-0.02764669736548668
22432.0,-0.029656115778222462
22440.0,-0.036330350790639
22448.0,-0.03881483206443587
22456.0,-0.03279639583583677
22464.0,-0.027827272013653474
22472.0,-0.029225383446799882
22480.0,-0.03367136007846815
22488.0,-0.035642507509150004
22496.0,-0.03395280688540736
22504.0,-0.029132055578254136
22512.0,-0.02556220413294122
22520.0,-0.024895035042497897
22528.0,-0.024885076405330393
22536.0,-0.025084989499963666
22544.0,-0.02483180398983022
22552.0,-0.027540305999779708
22560.0,-0.03350578471507875
22568.0,-0.0360155559383126
22576.0,-0.03354192839987218
22584.0,-0.03457140979125859
22592.0,-0.04756257709775076
22600.0,-0.0672662974117313
22608.0,-0.030537647735333677
22616.0,0.2094413603832778
22624.0,0.6989790887981346
22632.0,1.0035152431750343
22640.0,0.7190141014800036
22648.0,0.22621489503217548
22656.0,-0.021120208555501126
22664.0,-0.0617932129056222
22672.0,-0.04240934657314648
22680.0,-0.02873844608013761
22688.0,-0.028429188632616433
22696.0,-0.029284830476310347
22704.0,-0.031799515648182876
22712.0,-0.037622055348929644
22720.0,-0.037448359697213496
22728.0,-0.03371395101634696
22736.0,-0.03222142295448494
22744.0,-0.0289285488727434
22752.0,-0.024277276069367425
22760.0,-0.02350007796674
22768.0,-0.026965525365473864
22776.0,-0.03015001172415632
22784.0,-0.03139929188132872
22792.0,-0.031363561965443654
22800.0,-0.03363177822783588
22808.0,-0.03919182315715213
22816.0,-0.042252622020274404
22824.0,-0.0394839195269318
22832.0,-0.042147838026797634
22840.0,-0.04611390276131126
22848.0,-0.0440777881413133
22856.0,-0.03954396213282891
22864.0,-0.03641142692476751
22872.0,-0.03581663093553553
22880.0,-0.03309074210896855
22888.0,-0.03350848788379713
22896.0,-0.032818465483064246
22904.0,-0.029521345199319846
22912.0,-0.029571536499929024
22920.0,-0.028493749319425662
22928.0,-0.02285946057419663
22936.0,-0.018353790541924653
22944.0,-0.018693588003701234
22952.0,-0.02217032243345619
22960.0,-0.022802777364579366
22968.0,-0.0207964394538258
22976.0,-0.021952864009512574
22984.0,-0.0246824856728466
22992.0,-0.026041643876740843
23000.0,-0.023484826855267246
23008.0,-0.021687053821252352
23016.0,-0.025405931065114455
23024.0,-0.028212098816121925
23032.0,-0.02681363966793827
23040.0,-0.026229941898261888
23048.0,-0.026655195843768652
23056.0,-0.029301656835712075
23064.0,-0.03246649089085779
23072.0,-0.03297798696982031
23080.0,-0.03238525797891541
23088.0,-0.030931848212769817
23096.0,-0.028871913684050305
23104.0,-0.026584549846897145
23112.0,-0.027087844099982487
23120.0,-0.027918982132882145
23128.0,-0.02999868359925635
23136.0,-0.033441849740599335
23144.0,-0.031147307270332138
23152.0,-0.02992778986201767
23160.0,-0.03369359403280022
23168.0,-0.03915908468997647
23176.0,-0.037981722451655625
23184.0,-0.033018246406242346
23192.0,-0.03446300750217269
23200.0,-0.033720000652785756
23208.0,-0.029457374934307584
23216.0,-0.029987038910669978
23224.0,-0.032462323250738986
23232.0,-0.03243746965690617
23240.0,-0.032487982558906066
23248.0,-0.036736826780865664
23256.0,-0.04182682926117738
23264.0,-0.04205826738353446
23272.0,-0.037513667249315784
23280.0,-0.030694225321809886
23288.0,-0.030917502364816954
23296.0,-0.03341356584618418
23304.0,-0.03387955754998597
23312.0,-0.038356026976652045
23320.0,-0.043237567689455095
23328.0,-0.05000332332104898
23336.0,-0.06710441498783412
23344.0,-0.05213625385892585
23352.0,0.13356083495367396
23360.0,0.5923417994153489
23368.0,0.970321429207655
23376.0,0.7726200887699588
23384.0,0.27604852588946865
23392.0,-0.010251097489122002
23400.0,-0.06918687369052043
23408.0,-0.04809705307701822
23416.0,-0.028908305967883012
23424.0,-0.02363793929982065
23432.0,-0.026340445053132596
23440.0,-0.031177021215298903
23448.0,-0.02867535029592653
23456.0,-0.023833324368257188
23464.0,-0.024567740182553068
23472.0,-0.0274604935106065
23480.0,-0.026488535196225117
23488.0,-0.024366299869474934
23496.0,-0.02307224955875879
23504.0,-0.02300211596946551
23512.0,-0.02541565216287899
23520.0,-0.03152670658584874
23528.0,-0.034323475088710996
23536.0,-0.031046183866565102
23544.0,-0.028542238291856547
23552.0,-0.030025593037066863
23560.0,-0.031233556242813744
23568.0,-0.03360137877850388
23576.0,-0.03539703527645299
23584.0,-0.03561913069249806
23592.0,-0.038497686973088946
23600.0,-0.04252619970798762
23608.0,-0.040936198671825894
23616.0,-0.03453184859052867
23624.0,-0.02913949470563059
23632.0,-0.024583380736818802
23640.0,-0.01968241974211943
23648.0,-0.017933092643588767
23656.0,-0.019188814836527388
23664.0,-0.020167626467513643
23672.0,-0.01856067655656132
23680.0,-0.017204370135543948
23688.0,-0.01754153491836372
23696.0,-0.019661222194819784
23704.0,-0.022132124658529217
23712.0,-0.02537043119770868
23720.0,-0.02617751901976961
23728.0,-0.022048308653868233
23736.0,-0.02089204697856387
23744.0,-0.024904410361161266
23752.0,-0.028154255441686076
23760.0,-0.02612076130783015
23768.0,-0.02076807789847377
23776.0,-0.01728662289512939
23784.0,-0.017321046533645978
23792.0,-0.019135585213105117
23800.0,-0.020444801756343264
23808.0,-0.023949019331395455
23816.0,-0.02794881098447691
23824.0,-0.026283913961508143
23832.0,-0.025139623118314552
23840.0,-0.02876021393832166
23848.0,-0.03029302155373931
23856.0,-0.026878337816813196
23864.0,-0.020679479317617405
23872.0,-0.01835329801127118
23880.0,-0.0199113626406378
23888.0,-0.021593435440634374
23896.0,-0.023169568977818925
23904.0,-0.02435587427126778
23912.0,-0.024560610082581667
23920.0,-0.022216230392106944
23928.0,-0.02158403586675879
23936.0,-0.02529943311461194
23944.0,-0.025934512199498164
23952.0,-0.02423611972569286
23960.0,-0.024771611980368625
23968.0,-0.024159464189102114
23976.0,-0.024178983560611496
23984.0,-0.024379845578101744
23992.0,-0.02366638571492256
24000.0,-0.0239516169144419
24008.0,-0.024284362005468615
24016.0,-0.025193973932267154
24024.0,-0.02607954959983725
24032.0,-0.025759675208388177
24040.0,-0.025186018701414497
24048.0,-0.025556104358819484
24056.0,-0.027009235858062565
24064.0,-0.026660083483175084
24072.0,-0.025232711641420436
24080.0,-0.024984239911974373
24088.0,-0.023765183652802502
24096.0,-0.024157868122924385
24104.0,-0.02318609653225934
24112.0,-0.019065409793381467
24120.0,-0.015623632809386721
24128.0,-0.020509999852727525
24136.0,-0.0396882821018754
24144.0,-0.06442254589691984
24152.0,-0.04043710104165135
24160.0,0.1618830497208479
24168.0,0.6141933591205283
24176.0,0.9301863952298807
24184.0,0.6619416850091344
24192.0,0.19718824056545212
24200.0,-0.02967847968107796
24208.0,-0.06644370569830958
24216.0,-0.04623270650389604
24224.0,-0.03210097734192651
24232.0,-0.029446479029504438
24240.0,-0.02943832884412337
24248.0,-0.028552294974774833
24256.0,-0.024673457779699016
24264.0,-0.020432561267926422
24272.0,-0.019906002605434174
24280.0,-0.021758636345547137
24288.0,-0.025498587737173437
24296.0,-0.029027262535676585
24304.0,-0.030127216129876632
24312.0,-0.03108481410225498
24320.0,-0.030138031650578632
24328.0,-0.02596738554678323
24336.0,-0.02149775095303903
24344.0,-0.020021494025728132
24352.0,-0.02245216530693901
24360.0,-0.025576038125410858
24368.0,-0.0301607993496317
24376.0,-0.0384421747222767
24384.0,-0.0418268968026966
24392.0,-0.03471473042345841
24400.0,-0.02832371465332787
24408.0,-0.030961924120421244
24416.0,-0.03760018886120486
24424.0,-0.037627229706739894
24432.0,-0.03270546582053373
24440.0,-0.02499224085204649
24448.0,-0.018031034154183997
24456.0,-0.01781310041539847
24464.0,-0.02320580297025645
24472.0,-0.026985112544824975
24480.0,-0.02606404337893986
24488.0,-0.020838445790378485
24496.0,-0.017232237424848945
24504.0,-0.01826061583892707
24512.0,-0.023189154466553976
24520.0,-0.028745321973361198
24528.0,-0.02759097593356977
24536.0,-0.024371885476121864
24544.0,-0.02206211133040853
24552.0,-0.01907043716907814
24560.0,-0.01652003241811746
24568.0,-0.015896396576245756
24576.0,-0.018039957603273992
24584.0,-0.020791677291396405
24592.0,-0.023513281905512138
24600.0,-0.023115973693134718
24608.0,-0.02220138117171312
24616.0,-0.02395168833016744
24624.0,-0.022780765240534018
24632.0,-0.020505536955376616
24640.0,-0.019108201135734398
24648.0,-0.01959802131077697
24656.0,-0.024148449696050827
24664.0,-0.024996419042214012
24672.0,-0.020116088678130417
24680.0,-0.015597681789624446
24688.0,-0.013922467488302835
24696.0,-0.016254609536064637
24704.0,-0.018962380569437002
24712.0,-0.016001241319181778
24720.0,-0.01107534489001537
24728.0,-0.010078091669839931
24736.0,-0.013672146874243327
24744.0,-0.017537609010539426
24752.0,-0.022114069180407293
24760.0,-0.026185403113383163
24768.0,-0.024759141307726246
24776.0,-0.021680482352527675
24784.0,-0.016839460557576878
24792.0,-0.013227320548428312
24800.0,-0.013140937402615082
24808.0,-0.01710397304291515
24816.0,-0.023658360983883187
24824.0,-0.02624866360500579
24832.0,-0.02567062867770135
24840.0,-0.0255953454675377
24848.0,-0.022893133522590998
24856.0,-0.019860873875392444
24864.0,-0.01774297727265037
24872.0,-0.01945875114108258
24880.0,-0.02140776986821191
24888.0,-0.021728288718030248
24896.0,-0.02336060356711837
24904.0,-0.02568078700054622
24912.0,-0.025161924455641017
24920.0,-0.021603753412464993
24928.0,-0.018971808789809946
24936.0,-0.0185312851733493
24944.0,-0.02036474549457051
24952.0,-0.020606632923467427
24960.0,-0.018665067539879333
24968.0,-0.015183032855084938
24976.0,-0.013120920269371662
24984.0,-0.01964297230437425
24992.0,-0.04061800175924425
25000.0,-0.059334649237525475
25008.0,0.008471091235578779
25016.0,0.30513998218286725
25024.0,0.7548639256594611
25032.0,0.8033607269959172
25040.0,0.3821499453242596
25048.0,0.04721869588724135
25056.0,-0.054664208953465646
25064.0,-0.05258814680082449
25072.0,-0.036384102329494857
25080.0,-0.027793519935333473
25088.0,-0.021647104176351194
25096.0,-0.01597386162631842
25104.0,-0.013361906025340596
25112.0,-0.013986230217777635
25120.0,-0.017630236010712404
25128.0,-0.022472044149457207
25136.0,-0.024977041471906745
25144.0,-0.023315567967206297
25152.0,-0.019136405590766764
25160.0,-0.016544848584495276
25168.0,-0.014582559903402176
25176.0,-0.0147689138692215
25184.0,-0.021143325122569508
25192.0,-0.03168632548202895
25200.0,-0.03976476200455284
25208.0,-0.04420693412443644
25216.0,-0.042242531461558736
25224.0,-0.03396027674528945
25232.0,-0.0270668198525076
25240.0,-0.029394958405333377
25248.0,-0.03787799624949659
25256.0,-0.04332793304053382
25264.0,-0.0387254594718056
25272.0,-0.03285786232112994
25280.0,-0.028490996808377137
25288.0,-0.023443326555573907
25296.0,-0.02064929405008448
25304.0,-0.017882305582747005
25312.0,-0.01686253381458458
25320.0,-0.018454403709779892
25328.0,-0.017574773079277437
25336.0,-0.01607588005513178
25344.0,-0.01598618374878556
25352.0,-0.018892428956358974
25360.0,-0.022111345897479588
25368.0,-0.019934636030319856
25376.0,-0.016372028812408065
25384.0,-0.01621093647813548
25392.0,-0.01813246017004784
25400.0,-0.019902522856194253
25408.0,-0.017339416436409013
25416.0,-0.012967289278305254
25424.0,-0.011075355565354734
25432.0,-0.01148292273139787
25440.0,-0.013467815490247113
25448.0,-0.015274687203337571
25456.0,-0.01517226514100468
25464.0,-0.014178125324599654
25472.0,-0.012683654506498788
25480.0,-0.015624453574180854
25488.0,-0.02473004645218082
25496.0,-0.0335267514056275
25504.0,-0.03233520110891713
25512.0,-0.023685974901113942
25520.0,-0.01648336369858352
25528.0,-0.013074541113304687
25536.0,-0.014512907059466933
25544.0,-0.018881008358360214
25552.0,-0.024044511299255077
25560.0,-0.028263670151213453
25568.0,-0.029294876211025535
25576.0,-0.025326595038008815
25584.0,-0.0204547240397209
25592.0,-0.01996705296903675
25600.0,-0.02039672811229374
25608.0,-0.01648936050879969
25616.0,-0.01479018501019193
25624.0,-0.020619925284463533
25632.0,-0.030416891642596738
25640.0,-0.03380527418252972
25648.0,-0.028478358147971023
25656.0,-0.021875915701342306
25664.0,-0.01825769386415489
25672.0,-0.016803548324645597
25680.0,-0.0162595170161619
25688.0,-0.018178426495543045
25696.0,-0.02447061228515023
25704.0,-0.034009316736620186
25712.0,-0.03770892500437469
25720.0,-0.03192977628376363
25728.0,-0.0248509729016914
25736.0,-0.02222811034770778
25744.0,-0.02171670788529787
25752.0,-0.0228138073100778
25760.0,-0.020655624866048945
25768.0,-0.018857492091294347
25776.0,-0.0253142456441503
25784.0,-0.034546072776012564
25792.0,-0.03485331486546865
25800.0,-0.030604752362586952
25808.0,-0.028863286795723954
25816.0,-0.02779106013608769
25824.0,-0.027072672167294337
25832.0,-0.02602376415270794
25840.0,-0.021912229175189517
25848.0,-0.019323848885141128
25856.0,-0.021031230085808907
25864.0,-0.030186593247745915
25872.0,-0.04995285083927244
25880.0,-0.06617514331003517
25888.0,0.009499401713606692
25896.0,0.3343250423970772
25904.0,0.8487671095063515
25912.0,0.9679622217405135
25920.0,0.5238423533651178
25928.0,0.0897631296288705
25936.0,-0.06291609683567494
25944.0,-0.06059049923677678
25952.0,-0.033021106294749566
25960.0,-0.021632309519165765
25968.0,-0.021141298226958753
25976.0,-0.022484920498685036
25984.0,-0.027487476312170172
25992.0,-0.03277903391776254
26000.0,-0.033288893754068447
26008.0,-0.0295126430898732
26016.0,-0.024946393030796394
26024.0,-0.022925895715184944
26032.0,-0.02393526429694864
26040.0,-0.023990993608709443
26048.0,-0.024321459065219167
26056.0,-0.027429280398788326
26064.0,-0.033637241631779974
26072.0,-0.03609379403396981
26080.0,-0.03378295763447039
26088.0,-0.03324094091009218
26096.0,-0.03444453761487137
26104.0,-0.03491604248489629
26112.0,-0.03141281397441545
26120.0,-0.028258843004865763
26128.0,-0.03061965421355627
26136.0,-0.03648146146429213
26144.0,-0.03787038261004286
26152.0,-0.034859656705758614
26160.0,-0.03396154138291051
26168.0,-0.0338714725767337
26176.0,-0.032751531771150116
26184.0,-0.028122217341116248
26192.0,-0.024417546043058368
26200.0,-0.02109616362754605
26208.0,-0.019061760070561404
26216.0,-0.01723149395654344
26224.0,-0.014193109735718778
26232.0,-0.013614876055637036
26240.0,-0.016135550761103686
26248.0,-0.01987621307626477
26256.0,-0.024159758246444868
26264.0,-0.027495095349399073
26272.0,-0.027025181864308804
26280.0,-0.02455518419983202
26288.0,-0.0226911805838899
26296.0,-0.01850785039059657
26304.0,-0.01617488731962643
26312.0,-0.017925726119373934
26320.0,-0.02202684112726804
26328.0,-0.02481263219825919
26336.0,-0.02412879507639586
26344.0,-0.02084331898241629
26352.0,-0.019744567811014854
26360.0,-0.022959001136094694
26368.0,-0.026171236803913957
26376.0,-0.02463100731387619
26384.0,-0.022049329734920096
26392.0,-0.02005879004128564
26400.0,-0.019985371367960383
26408.0,-0.01942726685099012
26416.0,-0.017701099832507863
26424.0,-0.016671273995141556
26432.0,-0.018573130169698283
26440.0,-0.020662252762457676
26448.0,-0.021520766770709736
26456.0,-0.024698718480006005
26464.0,-0.027857648446050338
26472.0,-0.028857790072853634
26480.0,-0.02740250479023846
26488.0,-0.02495477458319301
26496.0,-0.02456988822458203
26504.0,-0.02490805199317329
26512.0,-0.0256957331527284
26520.0,-0.02606365257132432
26528.0,-0.02420284908354964
26536.0,-0.020919139463042677
26544.0,-0.0190074232052515
26552.0,-0.020088599471274216
26560.0,-0.021095234331249376
26568.0,-0.02155815565035674
26576.0,-0.02278808647132206
26584.0,-0.022881056200913373
26592.0,-0.023012622337179482
26600.0,-0.02300893431816195
26608.0,-0.02244100259972949
26616.0,-0.023016234862245563
26624.0,-0.02365185156425746
26632.0,-0.023456540347174246
26640.0,-0.024311615247898953
26648.0,-0.026188833473069377
26656.0,-0.025191462599181192
26664.0,-0.02379288715286999
26672.0,-0.0240121683641921
26680.0,-0.02384983582815686
26688.0,-0.023658481571122776
26696.0,-0.02786613545764222
26704.0,-0.03469940552556681
26712.0,-0.03808773480035613
26720.0,-0.03096431474392574
26728.0,-0.02094350746573407
26736.0,-0.018299795267834863
26744.0,-0.029040531798566364
26752.0,-0.05481251939499781
26760.0,-0.062028885505644844
26768.0,0.05367485029845703
26776.0,0.4253759588427129
26784.0,0.8759982679304055
26792.0,0.8462784306996395
26800.0,0.3725040750856478
26808.0,0.0318426155015588
26816.0,-0.06030848999573775
26824.0,-0.048865053459842246
26832.0,-0.027905056722299298
26840.0,-0.017940703565980473
26848.0,-0.018222570649137997
26856.0,-0.022077336151234892
26864.0,-0.023463712298873507
26872.0,-0.026286935127775024
26880.0,-0.029359417947391022
26888.0,-0.02861047761847325
26896.0,-0.02678513876906453
26904.0,-0.021715604331181113
26912.0,-0.019540796312913538
26920.0,-0.022529344383749518
26928.0,-0.02846153957404822
26936.0,-0.03501792743799041
26944.0,-0.034641396058621286
26952.0,-0.03132938847714975
26960.0,-0.028032263109724263
26968.0,-0.024961290903426088
26976.0,-0.02694489990218785
26984.0,-0.031658127499484406
26992.0,-0.030490155958271436
27000.0,-0.029021492848869124
27008.0,-0.03182296488798652
27016.0,-0.03362771375016951
27024.0,-0.03198498073656314
27032.0,-0.03181393792870109
27040.0,-0.03183699880611696
27048.0,-0.027312623850742644
27056.0,-0.019873536401425373
27064.0,-0.01675728981539949
27072.0,-0.01830945687569949
27080.0,-0.01788007662930131
27088.0,-0.016490942225486124
27096.0,-0.014454563545138258
27104.0,-0.01242231804261486
27112.0,-0.012376061576285494
27120.0,-0.01470686157505029
27128.0,-0.01806990396546044
27136.0,-0.021249111087919197
27144.0,-0.020525080012480528
27152.0,-0.015445763730340614
27160.0,-0.012953855463892619
27168.0,-0.014105759989856288
27176.0,-0.015749640810485972
27184.0,-0.017640628152361622
27192.0,-0.02148334112033858
27200.0,-0.025649174446194748
27208.0,-0.02344747926500319
27216.0,-0.018089764210722198
27224.0,-0.01599792884123977
27232.0,-0.015959828745529703
27240.0,-0.01651348995554594
27248.0,-0.017273664635248726
27256.0,-0.02140231244769308
27264.0,-0.029091517031541562
27272.0,-0.02966489313343652
27280.0,-0.02662118971059618
27288.0,-0.02681795008843631
27296.0,-0.03108006010993827
27304.0,-0.034534748624281186
27312.0,-0.03121328491710259
27320.0,-0.021704694175188218
27328.0,-0.014479601245125965
27336.0,-0.012496937832245997
27344.0,-0.01592436078862876
27352.0,-0.021539421514269616
27360.0,-0.024716863068459372
27368.0,-0.025981442144929395
27376.0,-0.025152261484030793
27384.0,-0.0236737853253792
27392.0,-0.01853713358745738
27400.0,-0.016367049492217758
27408.0,-0.02159233982014968
27416.0,-0.025575376375433705
27424.0,-0.023475788943451776
27432.0,-0.0218171864621001
27440.0,-0.024210009811161216
27448.0,-0.02569564550945027
27456.0,-0.023896666345959723
27464.0,-0.023089663899785902
27472.0,-0.022662037209911504
27480.0,-0.02246841751589209
27488.0,-0.027443267318507956
27496.0,-0.03291791138789239
27504.0,-0.03283806006592174
27512.0,-0.03241719299705294
27520.0,-0.03351432323623888
27528.0,-0.034060413694553704
27536.0,-0.033095774080987836
27544.0,-0.0305221589292398
27552.0,-0.028458377251412256
27560.0,-0.027330507031531854
27568.0,-0.02556047270430214
27576.0,-0.023520683649656902
27584.0,-0.02571077040438829
27592.0,-0.02794626952371178
27600.0,-0.026186931296398278
27608.0,-0.03278386923223354
27616.0,-0.05417594436564121
27624.0,-0.0708231140081329
27632.0,0.0034299733020213994
27640.0,0.3145718397153691
27648.0,0.7925232424499484
27656.0,0.8869572733402958
27664.0,0.46116333648372465
27672.0,0.07630160509002963
27680.0,-0.050898353457057344
27688.0,-0.05101184737703024
27696.0,-0.03426541013785932
27704.0,-0.02941996355521904
27712.0,-0.028184298669205573
27720.0,-0.023825637744742018
27728.0,-0.020872711152608647
27736.0,-0.020802180613127785
27744.0,-0.022980333392226097
27752.0,-0.025825373424306287
27760.0,-0.02907990475275202
27768.0,-0.029411443136245233
27776.0,-0.024778184302895828
27784.0,-0.018788440438660466
27792.0,-0.018565752965047682
27800.0,-0.02188866612401704
27808.0,-0.024121926715340084
27816.0,-0.022869137373560805
27824.0,-0.02295762583611365
27832.0,-0.028218909915026274
27840.0,-0.03284089779702355
27848.0,-0.033097787896449515
27856.0,-0.03430333204535141
27864.0,-0.03830729437713574
27872.0,-0.04205053678055111
27880.0,-0.0433606159090508
27888.0,-0.03921149972779499
27896.0,-0.03416797722983456
27904.0,-0.0310274660472035
27912.0,-0.025911820680708197
27920.0,-0.018745400075098718
27928.0,-0.015487164103904738
27936.0,-0.018263685779815127
27944.0,-0.02328035658010551
27952.0,-0.02399023837591553
27960.0,-0.02040369118554477
27968.0,-0.017725004173892236
27976.0,-0.019564626317625997
27984.0,-0.02153687740831296
27992.0,-0.023889286233791742
28000.0,-0.025952521024891474
28008.0,-0.02389386613649562
28016.0,-0.020363009370599688
28024.0,-0.01619003366906982
28032.0,-0.014058366469820381
28040.0,-0.014088403299109587
28048.0,-0.01559080978298743
28056.0,-0.01740660434390044
28064.0,-0.018382507997868225
28072.0,-0.021406645394015194
28080.0,-0.023335506634168935
28088.0,-0.022404440091759428
28096.0,-0.02549468720676806
28104.0,-0.028326591294372996
28112.0,-0.025568944647263413
28120.0,-0.02003276013063054
28128.0,-0.01933469994920223
28136.0,-0.028617491789637593
28144.0,-0.04556910120080801
28152.0,-0.05241714988207555
28160.0,-0.04096435682084496
28168.0,-0.02629162086513208
28176.0,-0.01963391585370136
28184.0,-0.017852895064466363
28192.0,-0.01828965172070029
28200.0,-0.0183023034919382
28208.0,-0.018268514479972974
28216.0,-0.018713758445754965
28224.0,-0.023181044922216197
28232.0,-0.030056599962833785
28240.0,-0.03163238798626407
28248.0,-0.027885205060214302
28256.0,-0.02441062274040151
28264.0,-0.02444001468975338
28272.0,-0.027330275534713375
28280.0,-0.027608402644983016
28288.0,-0.027506616399906942
28296.0,-0.028239909744335694
28304.0,-0.02778256107282629
28312.0,-0.028953502551593104
28320.0,-0.031042802982843013
28328.0,-0.02849387978338763
28336.0,-0.024915064657195823
28344.0,-0.026573095853650128
28352.0,-0.027532446912924877
28360.0,-0.021983624249063922
28368.0,-0.01686422757651662
28376.0,-0.015568333479248797
28384.0,-0.01803127176569812
28392.0,-0.0239747546162109
28400.0,-0.02786206716126814
28408.0,-0.02550878548871027
28416.0,-0.021126255153304078
28424.0,-0.018959719185326317
28432.0,-0.027428201913337044
28440.0,-0.05090739915009314
28448.0,-0.06858737564727853
28456.0,0.016342797424475964
28464.0,0.35886733587832176
28472.0,0.855109217652134
28480.0,0.9369755440557423
28488.0,0.4915468121371542
28496.0,0.08481713481654421
28504.0,-0.05363216022147119
28512.0,-0.05490777687596982
28520.0,-0.03254037919843088
28528.0,-0.02163853317115195
28536.0,-0.01959853376009235
28544.0,-0.0231961435384201
28552.0,-0.02909583785957417
28560.0,-0.03106947637502445
28568.0,-0.029678439977095652
28576.0,-0.02781097942949699
28584.0,-0.02474189268024857
28592.0,-0.0232924183031594
28600.0,-0.02471631166422362
28608.0,-0.026690951700062065
28616.0,-0.02879457592879184
28624.0,-0.030203699438585654
28632.0,-0.02929638562153106
28640.0,-0.02580662916628347
28648.0,-0.023001483206824047
28656.0,-0.02398511826079367
28664.0,-0.026762553983012166
28672.0,-0.028711804830651284
28680.0,-0.029372420212591177
28688.0,-0.02785155525744576
28696.0,-0.0282593770907836
28704.0,-0.0323383677351818
28712.0,-0.03681276481148544
28720.0,-0.03876558006802286
28728.0,-0.03584021451637389
28736.0,-0.02916865161504642
28744.0,-0.023313393531486145
28752.0,-0.021240063503926664
28760.0,-0.020049641408637672
28768.0,-0.018660597180594325
28776.0,-0.018644232802349937
28784.0,-0.017771821675234237
28792.0,-0.01630672465483816
28800.0,-0.015577599850329138
28808.0,-0.01652631742733087
28816.0,-0.01690784491666111
28824.0,-0.017104686781489575
28832.0,-0.020430783379008867
28840.0,-0.02324891310089006
28848.0,-0.022831400224704722
28856.0,-0.018814736680791817
28864.0,-0.014152599720864417
28872.0,-0.014753774913053906
28880.0,-0.01972997080081975
28888.0,-0.02288291455004469
28896.0,-0.021871330457530445
28904.0,-0.01969121607796678
28912.0,-0.020791640628650614
28920.0,-0.024692884517979567
28928.0,-0.02707455480099851
28936.0,-0.02527747980249493
28944.0,-0.02369184385655168
28952.0,-0.02182370379210778
28960.0,-0.024526039245632108
28968.0,-0.03248516487049355
28976.0,-0.0335939444539354
28984.0,-0.027769024113160196
28992.0,-0.021883348555568855
29000.0,-0.01794032501952724
29008.0,-0.01860638973473397
29016.0,-0.022620238968088735
29024.0,-0.025604838963910297
29032.0,-0.02654875858636768
29040.0,-0.026505681611321927
29048.0,-0.025536924585716037
29056.0,-0.022669419595155966
29064.0,-0.018710406802860843
29072.0,-0.0169218054902573
29080.0,-0.017990533808702504
29088.0,-0.022516608411667857
29096.0,-0.025371595347610725
29104.0,-0.025257160873981527
29112.0,-0.02588980653958443
29120.0,-0.02758540226738388
29128.0,-0.028702171328156778
29136.0,-0.02675610436331379
29144.0,-0.024910114334667853
29152.0,-0.027514577140794985
29160.0,-0.03560368156331845
29168.0,-0.038960661062094476
29176.0,-0.03193762594686753
29184.0,-0.024493562908618066
29192.0,-0.02221166684378319
29200.0,-0.0210114954156299
29208.0,-0.01654224380429171
29216.0,-0.014299071626083005
29224.0,-0.017729765521806228
29232.0,-0.028506603826071775
29240.0,-0.048841414437749364
29248.0,-0.0459207355845454
29256.0,0.0797071839850226
29264.0,0.42134409052399774
29272.0,0.744957235832764
29280.0,0.571617351755573
29288.0,0.17802500916243225
29296.0,-0.01796594189193073
29304.0,-0.05139524718394745
29312.0,-0.038098536447437464
29320.0,-0.028500087858655484
29328.0,-0.02872957266003754
29336.0,-0.030781112882427825
29344.0,-0.028583405239621967
29352.0,-0.025151300241191023
29360.0,-0.02249508432215886
29368.0,-0.02231111895156891
29376.0,-0.023640785007209095
29384.0,-0.024255549047049997
29392.0,-0.02478747701320923
29400.0,-0.024076702089621822
29408.0,-0.021765293015969224
29416.0,-0.019878963119174326
29424.0,-0.019776549839703873
29432.0,-0.02204806638756861
29440.0,-0.0258579335334824
29448.0,-0.027479343988442043
29456.0,-0.024540190683865832
29464.0,-0.023001420678814475
29472.0,-0.02513331382470106
29480.0,-0.027320415970627007
29488.0,-0.026712891255096894
29496.0,-0.026615158799239525
29504.0,-0.030079829044095157
29512.0,-0.034870016932218806
29520.0,-0.03665820824717651
29528.0,-0.03299871368426674
29536.0,-0.026396001345693122
29544.0,-0.02102185533878982
29552.0,-0.01819095572217234
29560.0,-0.01986442600517092
29568.0,-0.022357538640057323
29576.0,-0.022572122037826815
29584.0,-0.021828799681355454
29592.0,-0.01754242811998736
29600.0,-0.013561271137770515
29608.0,-0.015872282106910444
29616.0,-0.019117162146916167
29624.0,-0.01623135038554872
29632.0,-0.016055853472117097
29640.0,-0.018125379649676948
29648.0,-0.01588631234825724
29656.0,-0.01346680859458753
29664.0,-0.015237182694846044
29672.0,-0.016700150153581898
29680.0,-0.014269659635477747
29688.0,-0.012976730422394625
29696.0,-0.013387148984081765
29704.0,-0.01617945909150944
29712.0,-0.018448921704780675
29720.0,-0.016376891436264442
29728.0,-0.016419155816659852
29736.0,-0.021201195174765007
29744.0,-0.02512923195212232
29752.0,-0.023779964673577816
29760.0,-0.01837965991834052
29768.0,-0.014566971154892952
29776.0,-0.015733876758907358
29784.0,-0.01868457379630837
29792.0,-0.02161813756448709
29800.0,-0.021365867678649928
29808.0,-0.021194142727334876
29816.0,-0.025355303327727337
29824.0,-0.03208227283298414
29832.0,-0.032438579614754354
29840.0,-0.02952725332796922
29848.0,-0.02700200078247553
29856.0,-0.024806232126559018
29864.0,-0.024790629177453824
29872.0,-0.026592264167376273
29880.0,-0.026318403860437958
29888.0,-0.025370565004471952
29896.0,-0.02329659611571476
29904.0,-0.02052655216859054
29912.0,-0.01699267619166056
29920.0,-0.020783103777470818
29928.0,-0.029066330624893406
29936.0,-0.036139802260347416
29944.0,-0.039983656521988035
29952.0,-0.03875941567230555
29960.0,-0.03436130166589361
29968.0,-0.025998138393140947
29976.0,-0.019356788092766
29984.0,-0.020470253284787573
29992.0,-0.021202948106541514
30000.0,-0.019623299003588116
30008.0,-0.022101116065298503
30016.0,-0.0371205396411255
30024.0,-0.058718739849646574
30032.0,-0.04874704142069757
30040.0,0.11178865251924364
30048.0,0.52631447989793
30056.0,0.8812911851422982
30064.0,0.6706942460093378
30072.0,0.21508121628634994
30080.0,-0.01524741589835361
30088.0,-0.05460185462338386
30096.0,-0.03991014465172204
30104.0,-0.030229102095983715
30112.0,-0.02815035988109536
30120.0,-0.025371190837427338
30128.0,-0.021710079855736756
30136.0,-0.020372240122122777
30144.0,-0.023562685281933247
30152.0,-0.02657991968740321
30160.0,-0.02679691998292005
30168.0,-0.024987483753256188
30176.0,-0.024340196098559273
30184.0,-0.024443042534358153
30192.0,-0.023508766643889272
30200.0,-0.025576355443260798
30208.0,-0.02903722856198309
30216.0,-0.028568498907540443
30224.0,-0.025297548014307458
30232.0,-0.02435622205891554
30240.0,-0.027603211899988704
30248.0,-0.033545382099412435
30256.0,-0.03181071147531065
30264.0,-0.025747758579117364
30272.0,-0.028600574028391314
30280.0,-0.03347402746413168
30288.0,-0.033812462867711134
30296.0,-0.03321428185960692
30304.0,-0.032835518043242994
30312.0,-0.031213394745381585
30320.0,-0.02611588191363195
30328.0,-0.019529784824932648
30336.0,-0.01717128962959296
30344.0,-0.016763534860667065
30352.0,-0.016324901796171833
30360.0,-0.019465939854536225
30368.0,-0.026429733864892686
30376.0,-0.029247469630182626
30384.0,-0.025898551060726773
30392.0,-0.021652212247034484
30400.0,-0.019062928645720113
30408.0,-0.016030313388271544
30416.0,-0.015052480062545483
30424.0,-0.01820587507018707
30432.0,-0.022810840213604307
30440.0,-0.02816961913846748
30448.0,-0.03463073597740123
30456.0,-0.03772042586518965
30464.0,-0.03484366940868919
30472.0,-0.03071533623091481
30480.0,-0.02896884492875141
30488.0,-0.03030119953572082
30496.0,-0.03185655040954154
30504.0,-0.03372466292239044
30512.0,-0.033805206563732905
30520.0,-0.030867730167225185
30528.0,-0.026434622440321128
30536.0,-0.027130243942909193
30544.0,-0.03149275456718645
30552.0,-0.03421227508941641
30560.0,-0.03295657522122365
30568.0,-0.031479763576869026
30576.0,-0.032298710941606815
30584.0,-0.031216830658234832
30592.0,-0.026150878726244955
30600.0,-0.02323710139139632
30608.0,-0.025417022709012818
30616.0,-0.02975975967725041
30624.0,-0.03155071808771994
30632.0,-0.030637659233219417
30640.0,-0.03118845891957707
30648.0,-0.03292912140447585
30656.0,-0.03376878665912144
30664.0,-0.033236575705095465
30672.0,-0.031008637015350973
30680.0,-0.027405711531214582
30688.0,-0.02358461764539799
30696.0,-0.022605021784750694
30704.0,-0.024900650265163846
30712.0,-0.030787650347361268
30720.0,-0.031170322023578792
30728.0,-0.028253221082799724
30736.0,-0.025644115210858312
30744.0,-0.02327272970674991
30752.0,-0.028955368831300312
30760.0,-0.05041700751054549
30768.0,-0.06045962616431366
30776.0,0.04652357263273938
30784.0,0.4254675526494628
30792.0,0.9168842993441085
30800.0,0.9311825925914161
30808.0,0.4513284765281516
30816.0,0.05863534443905136
30824.0,-0.06621341924300628
30832.0,-0.06571048374081054
30840.0,-0.04598147160234056
30848.0,-0.03490377104398452
30856.0,-0.029527087516554265
30864.0,-0.026484102027398124
30872.0,-0.02726047848316253
30880.0,-0.030971472615698537
30888.0,-0.030793341348182828
30896.0,-0.027885172528283934
30904.0,-0.02599052576928304
30912.0,-0.025986476740748006
30920.0,-0.0299618213666327
30928.0,-0.035320999498138474
30936.0,-0.03738964632723694
30944.0,-0.034116245319271
30952.0,-0.032094941095975466
30960.0,-0.03163075729092553
30968.0,-0.0321645901022265
30976.0,-0.03503420700677782
30984.0,-0.04121886244157362
30992.0,-0.04345000664399787
31000.0,-0.03817683189605344
31008.0,-0.03673564328300139
31016.0,-0.03857926553824964
31024.0,-0.03762909782100694
31032.0,-0.03683413980423923
31040.0,-0.03594266858782942
31048.0,-0.030408636048733707
31056.0,-0.02524244661728578
31064.0,-0.023805879051489124
31072.0,-0.024453269903939916
31080.0,-0.025315526485237827
31088.0,-0.022932518546041412
31096.0,-0.018612472016850234
31104.0,-0.014767450485947783
31112.0,-0.013989283000153178
31120.0,-0.01693794148888628
31128.0,-0.021682958726580024
31136.0,-0.021794772639150365
31144.0,-0.017082100805484092
31152.0,-0.01591916894905907
31160.0,-0.01911054977917062
31168.0,-0.020276134124212537
31176.0,-0.019273785560200436
31184.0,-0.02111568033194542
31192.0,-0.026128722771958712
31200.0,-0.02761373154263254
31208.0,-0.02874158698997285
31216.0,-0.0284937219967724
31224.0,-0.023615429755938975
31232.0,-0.018053972448818827
31240.0,-0.015445193454380505
31248.0,-0.016410941164468736
31256.0,-0.019062381409650105
31264.0,-0.0210988828162332
31272.0,-0.021577620183101415
31280.0,-0.017868187466600564
31288.0,-0.014463985501798332
31296.0,-0.015675680484075652
31304.0,-0.01912605887893405
31312.0,-0.025897509598080234
31320.0,-0.030387229102693036
31328.0,-0.026461038549086862
31336.0,-0.022352494094133434
31344.0,-0.02017567260184967
31352.0,-0.015655183929968963
31360.0,-0.011478465822996345
31368.0,-0.009596785141417888
31376.0,-0.013292551864293782
31384.0,-0.023279563972651005
31392.0,-0.028459105736803814
31400.0,-0.02664857911309989
31408.0,-0.026845533686139563
31416.0,-0.027658236530695143
31424.0,-0.024796111504928074
31432.0,-0.022838595725313503
31440.0,-0.02473241690979051
31448.0,-0.02633173655221664
31456.0,-0.02076661557398393
31464.0,-0.01599287870174525
31472.0,-0.017761142110900366
31480.0,-0.024019071905007502
31488.0,-0.02919790608952773
31496.0,-0.02760896108385408
31504.0,-0.020948210459487342
31512.0,-0.02513902969104037
31520.0,-0.04518685091712194
31528.0,-0.041691234447818686
31536.0,0.08746125328466532
31544.0,0.4230433186780924
31552.0,0.6927682611327916
31560.0,0.47091938912624426
31568.0,0.12150227375601584
31576.0,-0.032095917694077325
31584.0,-0.05196011309304316
31592.0,-0.03446813500163104
31600.0,-0.021500487737864917
31608.0,-0.016447849637712224
31616.0,-0.019077551963053403
31624.0,-0.026382119222092187
31632.0,-0.02738377551158316
31640.0,-0.021741778711512626
31648.0,-0.02044761013594245
31656.0,-0.02167452459146931
31664.0,-0.02260888846353605
31672.0,-0.02388325101244748
31680.0,-0.02674077065278927
31688.0,-0.029606115724832238
31696.0,-0.029686632277246574
31704.0,-0.025350495649905
31712.0,-0.02057958702474904
31720.0,-0.020399915348585724
31728.0,-0.02189998041956541
31736.0,-0.02268164433796067
31744.0,-0.022822460945002048
31752.0,-0.022813918657139817
31760.0,-0.02287236051403036
31768.0,-0.022818664741289473
31776.0,-0.022017701762198576
31784.0,-0.0198939866499999
31792.0,-0.018207392973503805
31800.0,-0.02010711268127453
31808.0,-0.02558381492694708
31816.0,-0.02801063944231174
31824.0,-0.02407080651482151
31832.0,-0.019277781671240238
31840.0,-0.016718630086488464
31848.0,-0.01560633193533208
31856.0,-0.013934184105132722
31864.0,-0.015042717110878798
31872.0,-0.019384690238683843
31880.0,-0.022354826192647576
31888.0,-0.023040022711212242
31896.0,-0.023675753361297607
31904.0,-0.02694415591489702
31912.0,-0.032946573454631756
31920.0,-0.03454313556141689
31928.0,-0.027336385005818226
31936.0,-0.02191705770792201
31944.0,-0.023943763966413904
31952.0,-0.028270866804384294
31960.0,-0.02718755781022568
31968.0,-0.02197623791859117
31976.0,-0.019804747929493716
31984.0,-0.020821303644682047
31992.0,-0.02203992527887605
32000.0,-0.022408676502433833
32008.0,-0.022099544717177812
32016.0,-0.02098645772903922
32024.0,-0.02241903408119398
32032.0,-0.02556331882076459
32040.0,-0.028531027080948998
32048.0,-0.027504726216791155
32056.0,-0.026089819118717755
32064.0,-0.025793749372870614
32072.0,-0.02612135821997911
32080.0,-0.026058303473185815
32088.0,-0.02419676328809514
32096.0,-0.020143073203449765
32104.0,-0.019048367713536223
32112.0,-0.02454317625049332
32120.0,-0.027691242299868614
32128.0,-0.027516490755294016
32136.0,-0.02705178139897038
32144.0,-0.028261695030468163
32152.0,-0.03246736463656575
32160.0,-0.03762051507995312
32168.0,-0.039036003475218115
32176.0,-0.03556318090941358
32184.0,-0.029032972177180056
32192.0,-0.028630223606574197
32200.0,-0.03789434305797529
32208.0,-0.04504651624027473
32216.0,-0.03905974930420133
32224.0,-0.02927242859360327
32232.0,-0.02547536041476592
32240.0,-0.02450363386124973
32248.0,-0.025499948696402135
32256.0,-0.026924431145155008
32264.0,-0.03223345006607529
32272.0,-0.04865844253216057
32280.0,-0.06994221465576506
32288.0,-0.04919752810962165
32296.0,0.14584283299083528
32304.0,0.6083296745703752
32312.0,0.9797883298966233
32320.0,0.7729032532393836
32328.0,0.2781470963763631
32336.0,-0.0011291960214997818
32344.0,-0.06225042144802046
32352.0,-0.048696867868425975
32360.0,-0.030273627036678647
32368.0,-0.02301147450092627
32376.0,-0.02212260930172351
32384.0,-0.01919938626786319
32392.0,-0.01821553188664586
32400.0,-0.021342024628668813
32408.0,-0.023854251836619725
32416.0,-0.02633056316656423
32424.0,-0.02586772631362563
32432.0,-0.02459566364037294
32440.0,-0.026932367738787735
32448.0,-0.030244813764281675
32456.0,-0.027729334343910172
32464.0,-0.023618641721969025
32472.0,-0.02329661136827085
32480.0,-0.02567146961292872
32488.0,-0.028474113660806995
32496.0,-0.03174043810862295
32504.0,-0.03311761204449612
32512.0,-0.033477799420074665
32520.0,-0.039294879327313265
32528.0,-0.04446019184350641
32536.0,-0.04276887075003752
32544.0,-0.03906848537755852
32552.0,-0.036735362147089404
32560.0,-0.03165617434260339
32568.0,-0.026155915098598152
32576.0,-0.021313470795663196
32584.0,-0.017551720471886925
32592.0,-0.015382244248844313
32600.0,-0.015115957331960715
32608.0,-0.018097545982989714
32616.0,-0.022678691238889066
32624.0,-0.023735086612037146
32632.0,-0.021622844783768563
32640.0,-0.016844422604866984
32648.0,-0.015776679483379803
32656.0,-0.020419221823866917
32664.0,-0.022057576579566186
32672.0,-0.021304917110268096
32680.0,-0.023347030790074722
32688.0,-0.023368395639220444
32696.0,-0.02046532727973475
32704.0,-0.021758724320040834
32712.0,-0.022270121038346188
32720.0,-0.019794972112221556
32728.0,-0.02187565529032455
32736.0,-0.02652322879600532
32744.0,-0.029234432192438733
32752.0,-0.031177438406861338
32760.0,-0.032501870419976236
32768.0,-0.028484530405250667
32776.0,-0.022222315415684563
32784.0,-0.01942332315063585
32792.0,-0.021264201840253138
32800.0,-0.025934111418829286
32808.0,-0.029066188231719275
32816.0,-0.028620416776215917
32824.0,-0.024613162937922352
32832.0,-0.01980017194884355
32840.0,-0.01834582784615441
32848.0,-0.01990598669443527
32856.0,-0.025069955132551842
32864.0,-0.031421436223056654
32872.0,-0.0340826416949253
32880.0,-0.03234912827913311
32888.0,-0.03006160974862317
32896.0,-0.028230574161011088
32904.0,-0.026798978263056866
32912.0,-0.027709454926399344
32920.0,-0.02867488131718242
32928.0,-0.026369350449914813
32936.0,-0.022357844833609867
32944.0,-0.022221842457963572
32952.0,-0.025707815069417717
32960.0,-0.02736302281018844
32968.0,-0.029623484653798222
32976.0,-0.03479028235355353
32984.0,-0.0360649480855499
32992.0,-0.033981358138517694
33000.0,-0.033752532878516754
33008.0,-0.035389221074730685
33016.0,-0.03460951817859204
33024.0,-0.031408513896515264
33032.0,-0.02575109865248695
33040.0,-0.02278652613357878
